# MEX_intpoint_lon [deg], MEX_intpoint_lat [deg], MEX_intpoint_angle [deg], TGO_intpoint_lon [deg], TGO_intpoint_lat [deg], TGO_intpoint_angle [deg] 
-138.9082016660908, 19.493880563923646, 21.495488198015558, -27.676840543441763, 44.25490858805358, 62.83017159795723 
-139.8079873768992, 19.106455089480352, 21.496056908366167, -27.999358281069497, 44.6526036605311, 62.8256175702904 
-140.70615113041646, 18.720081943376872, 21.49661451148987, -28.31755725249632, 45.05297131047046, 62.82103327672179 
-141.60279078862038, 18.334853693602096, 21.497160850918004, -28.631348481805105, 45.455963977000835, 62.81642015370878 
-142.49800275395464, 17.950862256381, 21.49769578363777, -28.940639249979608, 45.8615337684395, 62.81177967529145 
-143.39188194347486, 17.568198916505107, 21.498219180107498, -29.245332868721675, 46.269632443833785, 62.80711335258638 
-144.28452176424207, 17.186954346791715, 21.498730924255746, -29.545328440853282, 46.68021139278156, 62.80242273323552 
-145.17601408982551, 16.807218626634487, 21.49923091346417, -29.840520606343613, 47.093221613424795, 62.79770940081024 
-146.06644923778836, 16.429081259609585, 21.499719058534232, -30.130799272923653, 47.50861368850104, 62.79297497417042 
-146.95591594803764, 16.052631190104076, 21.50019528363784, -30.416049330167045, 47.92633775932798, 62.78822110677931 
-147.8445013619308, 15.677956818934897, 21.50065952625211, -30.696150345824833, 48.34634349758442, 62.7834494859743 
-148.7322910020383, 15.305146017928806, 21.501111737078176, -30.970976243102548, 48.76858007473918, 62.778661832194075 
-149.61936875247238, 14.934286143435338, 21.501551879944394, -31.240394957460953, 49.19299612896548, 62.773859898162684 
-150.5058168396996, 14.56546404874636, 21.501979931693985, -31.504268071404265, 49.61953972936398, 62.76904546803065 
-151.3917158137627, 14.198766095397698, 21.50239588205732, -31.762450425592856, 50.04815833730054, 62.76422035647431 
-152.27714452984728, 13.834278163329335, 21.50279973350902, -32.01478970447935, 50.47879876464774, 62.75938640775325 
-153.16218013013463, 13.47208565988282, 21.503191501110173, -32.26112599451616, 50.91140712869832, 62.75454549472719 
-154.04689802589115, 13.112273527615132, 21.503571212335785, -32.501291312819966, 51.345928803497934, 62.74969951783231 
-154.93137187975177, 12.754926250910547, 21.503938906887782, -32.73510910399971, 51.78230836731955, 62.744850404018514 
-155.81567358816264, 12.400127861372559, 21.504294636493814, -32.96239370266242, 52.22048954597631, 62.74000010564766 
-156.69987326395483, 12.047961941980152, 21.504638464692174, -33.18294975890064, 52.660415151639505, 62.73515059935411 
-157.58403921902854, 11.69851162999328, 21.504970466603076, -33.39657162383669, 53.10202701679683, 62.7303038848685 
-158.46823794713364, 11.3518596185946, 21.505290728686646, -33.60304269205153, 53.545265922949724, 62.72546198380503 
-159.35253410673934, 11.0080881572552, 21.505599348487962, -33.80213469745608, 53.990071523609934, 62.720626938414284 
-160.2369905039922, 10.667279050814214, 21.50589643436949, -33.99360695887132, 54.43638226111109, 62.71580081030162 
-161.121668075768, 10.329513657263128, 21.50618210523126, -34.17720557126633, 54.88413527670364, 62.71098567911272 
-162.0066258728298, 9.9948728842275, 21.506456490219183, -34.35266253826114, 55.33326631334757, 62.706183641187444 
-162.8919210431087, 9.663437184140307, 21.506719728421906, -34.51969484113051, 55.78370961055859, 62.70139680818278 
-163.77760881513277, 9.33528654810272, 21.506971968556574, -34.678003439144376, 56.235397790598, 62.69662730566654 
-164.6637424816321, 9.010500498429982, 21.507213368643974, -34.827272195650906, 56.688261735223655, 62.69187727168271 
-165.5503733833561, 8.689158079881683, 21.507444095673474, -34.96716672384421, 57.14223045213966, 62.687148855289806 
-166.43755089314192, 8.371337849577813, 21.507664325258155, -35.09733314566368, 57.59723093019229, 62.68244421507388 
-167.32532240028138, 8.057117865603674, 21.507874241280696, -35.217396756742836, 58.05318798226206, 62.67776551763689 
-168.21373329523507, 7.746575674309013, 21.508074035530374, -35.326960589762905, 58.51002407469074, 62.67311493606265 
-169.10282695475007, 7.4397882963086674, 21.508263907331745, -35.42560386797319, 58.96765914196168, 62.668494648361026 
-169.9926447274405, 7.136832211194294, 21.508444063165417, -35.51288034001631, 59.42601038521599, 62.66390683589254 
-170.88322591989558, 6.837783340968985, 21.50861471628154, -35.58831648654828, 59.88499205303824, 62.659353681774284 
-171.77460778338286, 6.542717032219105, 21.50877608630633, -35.65140958847558, 60.34451520277867, 62.654837369269295 
-172.66682550121902, 6.251708037039948, 21.508928398842354, -35.70162564595433, 60.80448744049581, 62.65036008016045 
-173.5599121768842, 5.964830492734306, 21.509071885062948, -35.73839713662258, 61.26481263740033, 62.64592399311088 
-174.45389882295822, 5.682157900306063, 21.50920678130139, -35.761120600882634, 61.72539062045513, 62.641531282012146 
-175.34881435096122, 5.403763101773014, 21.509333328635314, -35.76915404144212, 62.186116834540194, 62.6371841143226 
-176.244685562183, 5.12971825632642, 21.509451772466935, -35.7618141237882, 62.64688197331579, 62.632884649396495 
-177.1415371395881, 4.860094815367355, 21.50956236209965, -35.738373163853815, 63.10757157561852, 62.628635036806685 
-178.03939164088575, 4.594963496452792, 21.50966535031155, -35.69805588888923, 63.56806558389452, 62.624437414661955 
-178.93826949285491, 4.3343942561873945, 21.50976099292639, -35.640035957547695, 64.02823786081487, 62.6202939079211 
-179.8381889870166, 4.078456262100022, 21.509849548382615, -35.56343222551943, 64.48795565982705, 62.61620662670522 
179.26083372325462, 3.8272178635468017, 21.509931277300957, -35.46730474381798, 64.94707904497345, 62.612177664610606 
178.35878462408598, 3.5807465616857113, 21.510006442051257, -35.35065047818252, 65.40546025485438, 62.60820909702317 
177.45565184083705, 3.339108978570893, 21.510075306318974, -35.212398740193684, 65.86294300512922, 62.60430297943711 
176.55142563611182, 3.102370825417505, 21.510138134672037, -35.05140632383903, 66.31936172344294, 62.60046134577916 
175.64609840596228, 2.8705968700914792, 21.510195192128506, -34.86645234570097, 66.77454071013725, 62.59668620674046 
174.73966467419206, 2.643850903881111, 21.510246743725784, -34.65623279303493, 67.22829321757457, 62.59297954811763 
173.83212108467367, 2.4221957076107263, 21.510293054091733, -34.41935479221154, 67.68042044037598, 62.58934332916546 
172.92346639159283, 2.2056930171592395, 21.51033438701841, -34.1543306208688, 68.13071040838052, 62.58577948096239 
172.01370144753753, 1.9944034884496076, 21.510371005038902, -33.85957150134234, 68.57893677370056, 62.58228990479116 
171.10282918935343, 1.7883866619776205, 21.510403169007883, -33.53338123134335, 69.02485748291885, 62.57887647053628 
170.19085462168974, 1.5877009269512492, 21.510431137686425, -33.173949731438796, 69.46821332530654, 62.57554101510011 
169.27778479816524, 1.392403485114266, 21.510455167331447, -32.77934661885163, 69.90872634801286, 62.57228534083961 
168.36362880008969, 1.2025503143302818, 21.510475511290682, -32.34751495485026, 70.34609812958713, 62.569111214025156 
167.44839771267948, 1.018196132005343, 21.5104924196034, -31.876265360162964, 70.78000790407307, 62.56602036332377 
166.53210459871448, 0.8393943584296018, 21.510506138607443, -31.363270751278126, 71.2101105294313, 62.56301447830816 
165.6147644695883, 0.6661970801199952, 21.510516910553307, -30.806062022189668, 71.63603429641198, 62.56009520799346 
164.69639425371102, 0.4986550132479711, 21.510524973225504, -30.202025083228193, 72.05737857748022, 62.557264159403445 
163.7770127622321, 0.33681746723724, 21.510530559571873, -29.548399773127844, 72.47371132032455, 62.55452289616798 
162.85664065205742, 0.18073230861809733, 21.510533897341276, -28.842281284144622, 72.88456639724674, 62.55187293715312 
161.9353003861433, 0.030445925225450355, 21.510535208730182, -28.080624883874133, 73.28944083081596, 62.54931575512599 
161.0130161910591, -0.11399680917150629, 21.51053471003853, -27.260254881109002, 73.6877919281088, 62.546852775455605 
160.08981401181845, -0.25255256971968576, 21.510532611335474, -26.37787896415059, 74.07903437125232, 62.544485374851654 
159.1657214639881, -0.3851796147242906, 21.51052911613523, -25.43010923262801, 74.46253733146172, 62.54221488014217 
158.24076778309336, -0.5118378191947758, 21.51052442108369, -24.41349143738435, 74.83762169791004, 62.54004256709256 
157.31498377134776, -0.6324887076070107, 21.51051871565606, -23.32454411989194, 75.20355754204765, 62.53796965926633 
156.38840174174507, -0.7470954857951251, 21.51051218186598, -22.15980947651704, 75.55956197258999, 62.535997326929866 
155.46105545956084, -0.8556230718876271, 21.51050499398647, -20.915917826125064, 75.90479757601285, 62.53412668600212 
154.5329800813207, -0.9580381262039247, 21.510497318283146, -19.589667481340932, 76.23837168096294, 62.532358797050655 
153.60421209130246, -1.0543090800293557, 21.51048931276001, -18.178121550008882, 76.5593367303105, 62.53069466433532 
152.6747892356487, -1.1444061631889522, 21.510481126918062, -16.67872264812354, 76.86669208791159, 62.529135234900686 
151.74475045417537, -1.2283014303427158, 21.510472901527297, -15.089425607257075, 77.1593876428567, 62.527681397718766 
150.81413580997275, -1.3059687859281148, 21.510464768412103, -13.408846933454255, 77.43632959420606, 62.52633398288228 
149.88298641690224, -1.3773840076786374, 21.510456850250574, -11.636427972556742, 77.69638879389284, 62.525093760850524 
148.95134436510298, -1.4425247686507683, 21.51044926038781, -9.772606465881957, 77.93841198289462, 62.52396144174796 
148.01925264462963, -1.5013706576955066, 21.51044210266366, -7.818988536844805, 78.16123616381712, 62.522937674716864 
147.08675506735065, -1.5539031983146985, 21.51043547125495, -5.778510354717682, 78.3637062014991, 62.522023047324986 
146.1538961872445, -1.6001058658467708, 21.510429450532488, -3.655576144950984, 78.54469552707884, 62.521218085028174 
145.22072121923762, -1.6399641029310226, 21.510424114933045, -1.4561573668170564, 78.70312954422405, 62.520523250689884 
144.2872759567346, -1.6734653332046034, 21.510419528846487, 0.8121626412908278, 78.8380110158465, 62.51993894415721 
143.3536066879964, -1.700598973191194, 21.510415746518134, 3.1402128611707183, 78.94844637762822, 62.519465501894175 
142.41976011152894, -1.7213564423457974, 21.510412811966575, 5.517338258714883, 79.03367162724953, 62.51910319667341 
141.48578325064602, -1.7357311712254555, 21.510410758916954, 7.931587501967017, 79.09307623014371, 62.518852237325504 
140.55172336737797, -1.7437186077611457, 21.510409610749935, 10.369981425680912, 79.1262234171316, 62.51871276854735 
139.61762787589686, -1.7453162216120022, 21.51040938046624, 12.818850175686654, 79.13286536467024, 62.518684870769235 
138.68354425563345, -1.7405235065885891, 21.510410070666996, 15.264218749582644, 79.11295205506057, 62.518768560080915 
137.74951996426196, -1.7293419811379351, 21.5104116735498, 17.69221448279952, 79.06663308647713, 62.518963788216816 
136.8156023507287, -1.711775186888823, 21.510414170920512, 20.089467136633527, 78.99425228115642, 62.51927044260046 
135.88183856850162, -1.6878286852617526, 21.510417534220835, 22.443473226407498, 78.8963355410314, 62.519688346447715 
134.94827548921492, -1.6575100521538906, 21.510421724571533, 24.742900878590227, 78.77357293492686, 62.52021725892945 
134.01495961688414, -1.620828870715004, 21.510426692831338, 26.977818877879567, 78.62679639647156, 62.5208568753923 
133.08193700286043, -1.5777967222362954, 21.510432379671425, 29.1398422436195, 78.45695462372043, 62.521606827638514 
132.14925316169374, -1.5284271751795566, 21.510438715665323, 31.222195158843817, 78.2650867931276, 62.52246668426345 
131.21695298806708, -1.4727357723795091, 21.51044562139415, 33.219699132405545, 78.0522965576966, 62.523435951050836 
130.2850806749615, -1.4107400164578028, 21.510453007567175, 35.12869916105219, 77.8197275393409, 62.5245140714253 
129.35367963320473, -1.3424593534918714, 21.510460775157245, 36.94694316713855, 77.56854120427265, 62.52570042696116 
128.42279241255076, -1.2679151549873418, 21.51046881555127, 38.67343035585836, 77.29989767909306, 62.5269943379476 
127.49246062443127, -1.1871306982068248, 21.5104770107152, 40.30824287432037, 77.0149397636603, 62.528395064008365 
126.56272486651217, -1.1001311449129776, 21.51048523337357, 41.852372870788656, 76.71478014912395, 62.52990180477646 
125.6336246491805, -1.0069435185875208, 21.51049334720324, 43.307554311280725, 76.40049166582108, 62.53151370062202 
124.70519832407977, -0.9075966801920071, 21.510501207041028, 44.67610615527566, 76.07310026502367, 62.53322983343265 
123.77748301480219, -0.8021213025398564, 21.5105086591051, 45.96079101597213, 75.73358037271922, 62.53504922744583 
122.850514549838, -0.6905498433523187, 21.510515541229672, 47.164691388390786, 75.38285223118707, 62.536970850131304 
121.92432739787259, -0.5729165170743236, 21.510521683112835, 48.29110396791955, 75.02178085296597, 62.53899361312332 
120.9989546055127, -0.4492572655285378, 21.510526906577155, 49.343451478005136, 74.65117624089943, 62.54111637320075 
120.07442773751357, -0.319609727488699, 21.510531025842578, 50.32521071407515, 74.27179456831044, 62.543337933314554 
119.15077681956929, -0.18401320725503037, 21.51053384781145, 51.239855111294844, 73.88434005826467, 62.54565704366058 
118.2280302837182, -0.042508642316520684, 21.510535172365223, 52.090809976633174, 73.48946734568577, 62.54807240279706 
117.30621491640638, 0.1048614298140764, 21.510534792672377, 52.881418520401084, 73.08778414787635, 62.55058265880484 
116.38535580924193, 0.25805290550526033, 21.510532495507196, 53.61491692142487, 72.67985410618728, 62.553186410489374 
115.46547631246312, 0.4170201495641077, 21.510528061579066, 54.29441681935273, 72.26619969351944, 62.555882208622485 
114.546597991135, 0.5817160303576835, 21.510521265871716, 54.922893815488294, 71.84730510901124, 62.55866855722293 
113.6287405840779, 0.752091955410204, 21.51051187799204, 55.503180758328746, 71.42361910300546, 62.56154391487365 
112.71192196552487, 0.9280979073878038, 21.51049966252805, 56.037964777834055, 70.99555769274772, 62.5645066960745 
111.79615810949424, 1.1096824803833567, 21.5104843794154, 56.52978720532364, 70.5635067428571, 62.5675552726287 
110.88146305685598, 1.296792916414495, 21.51046578431212, 56.9810456698097, 70.12782439505007, 62.57068797506125 
109.96784888506309, 1.4893751420489543, 21.51044362898095, 57.39399779526465, 69.6888433394617, 62.57390309406759 
109.05532568051036, 1.6873738050727463, 21.510417661678886, 57.7707660372256, 69.2468729257011, 62.57719888199093 
108.14390151347718, 1.8907323111182377, 21.510387627553303, 58.11334329269005, 68.80220111593775, 62.58057355432656 
107.2335824156031, 2.099392860170716, 21.510353269044213, 58.42359899638331, 68.35509628520077, 62.5840252912507 
106.32437235983943, 2.313296482874235, 21.510314326292143, 58.7032854812789, 67.90580887598539, 62.58755223917317 
105.41627324281372, 2.532383076559492, 21.510270537551023, 58.95404443380691, 67.4545729154343, 62.591152512311155 
104.50928486953953, 2.756591440918781, 21.510221639605604, 59.1774133164271, 67.00160740398785, 62.59482419428257 
103.60340494039816, 2.985859313255656, 21.510167368192814, 59.37483166391059, 66.54711758462354, 62.59856533971754 
102.69862904031567, 3.2201234032393264, 21.51010745842658, 59.547647186285886, 66.09129610174693, 62.60237397588511 
101.794950630054, 3.459319427096541, 21.510041645225428, 59.697121632261315, 65.63432405854002, 62.606248104334746 
100.89236103953232, 3.703382141176725, 21.509969663742382, 59.82443638313391, 65.17637198118597, 62.61018570254951 
99.99084946309185, 3.9522453748285877, 21.50989124979666, 59.930697759647146, 64.71760069792191, 62.6141847256099 
99.09040295661487, 4.205842062529783, 21.509806140306434, 60.01694203372314, 64.25816214035652, 62.618243107865965 
98.19100643640772, 4.464104275213885, 21.509714073722236, 60.08414014408205, 63.79820007395975, 62.62235876461621 
97.29264267975512, 4.726963250742189, 21.50961479046036, 60.13320211997719, 63.337850764098555, 62.626529593791076 
96.39529232705398, 4.994349423470611, 21.509508033335724, 60.16498122102146, 62.877243583476414, 62.630753477639615 
95.49893388543278, 5.2661924528654165, 21.509393547993668, 60.18027780368435, 62.41650156633694, 62.63502828441717 
94.60354373376474, 5.542421251124062, 21.50927108333994, 60.17984292676, 61.95574191432411, 62.639351870072325 
93.70909612898147, 5.822964009760985, 21.50914039196862, 60.164381709151236, 61.495076458452274, 62.64372207993149 
92.81556321359689, 6.107748225120656, 21.509001230587053, 60.134556453845356, 61.03461208123294, 62.64813675037906 
91.92291502435083, 6.396700722783573, 21.508853360437577, 60.09098955210621, 60.57445110262948, 62.65259371053179 
91.03111950188493, 6.68974768083371, 21.508696547715218, 60.03426618177158, 60.11469163316672, 62.657090783905154 
90.14014250136455, 6.986814651958478, 21.508530563980976, 59.96493681320706, 59.655427897208064, 62.66162579007044 
89.24994780396354, 7.287826584355595, 21.508355186570128, 59.883519535986274, 59.19675052912547, 62.66619654630051 
88.36049712913147, 7.592707841423477, 21.5081701989949, 59.79050221879265, 58.73874684482778, 62.670800869203006 
87.47175014756569, 7.901382220214808, 21.507975391341162, 59.68634451440188, 58.28150109087658, 62.67543657633873 
86.58366449481457, 8.213772968635173, 21.507770560658447, 59.57147972093898, 57.82509467320458, 62.680101487824395 
85.69619578544143, 8.529802801371577, 21.507555511342925, 59.44631650992544, 57.369606367258854, 62.684793427917455 
84.80929762768329, 8.849393914537504, 21.507330055512696, 59.3112405309588, 56.915112511216606, 62.68951022658182 
83.92292163854194, 9.172467999024168, 21.507094013375074, 59.16661590220746, 56.46168718376289, 62.69424972103308 
83.03701745925012, 9.498946252549256, 21.506847213585118, 59.01278659526759, 56.0094023677789, 62.69900975726163 
82.15153277106006, 9.828749390396919, 21.50658949359526, 58.85007772231939, 55.558328101159915, 62.70378819153175 
81.26641331130558, 10.161797654844971, 21.506320699995268, 58.67879673294208, 55.10853261586762, 62.70858289185659 
80.38160288969596, 10.498010823276779, 21.506040688842294, 58.49923452740119, 54.66008246621655, 62.71339173944608 
79.49704340480288, 10.837308214977796, 21.505749325980467, 58.31166649270925, 54.21304264730106, 62.7182126301279 
78.61267486070889, 11.179608696618036, 21.505446487349626, 58.116353467282046, 53.767476704384215, 62.72304347573895 
77.72843538379053, 11.524830686424, 21.5051320592828, 57.91354263956555, 53.32344683399381, 62.72788220548746 
76.84426123961535, 11.87289215704473, 21.50480593879199, 57.70346838559375, 52.88101397740191, 62.732726767283225 
75.96008684993798, 12.223710637118929, 21.504468033841928, 57.486353050052536, 52.4402379071018, 62.73757512903568 
75.07584480978659, 12.577203211551028, 21.50411826361138, 57.26240767506799, 52.00117730684058, 62.74242527991867 
74.1914659046374, 12.933286520506032, 21.50375655874167, 57.03183268060841, 51.563889845714584, 62.747275231600426 
73.30687912768076, 13.291876757134423, 21.503382861572064, 56.79481850008483, 51.12843224678906, 62.752123019438024 
72.42201169719023, 13.652889664039396, 21.502997126361766, 56.55154617445462, 50.694860350662296, 62.75696670363549 
71.53678907401124, 14.016240528500985, 21.50259931949804, 56.302187907874, 50.26322917435661, 62.761804370364494 
70.65113497919421, 14.381844176471947, 21.502189419690342, 56.046907587707615, 49.833592965885096, 62.76663413284669 
69.76497141180316, 14.74961496536269, 21.50176741815021, 55.785861271483995, 49.406005254811646, 62.77145413239694 
68.87821866693884, 15.119466775633134, 21.5013333187563, 55.519197643184505, 48.98051889909489, 62.776262539426924 
