# MEX_intpoint_lon [deg], MEX_intpoint_lat [deg], MEX_intpoint_angle [deg], TGO_intpoint_lon [deg], TGO_intpoint_lat [deg], TGO_intpoint_angle [deg] 
-138.93891387685966, 19.5013678030031, 21.51608219121394, -27.66274934155514, 44.009106605450754, 62.83535987648701 
-139.838034390282, 19.112818287403073, 21.51665331798514, -27.980964778284292, 44.407883493875474, 62.830792959656044 
-140.73553239812637, 18.72532719766422, 21.51721326277534, -28.29478857497951, 44.80932425513906, 62.82619532614137 
-141.63150622908208, 18.3389872188325, 21.517761868493416, -28.604130186858377, 45.21338065316372, 62.82156841690837 
-142.52605273840985, 17.953890383325152, 21.518298991594737, -28.908895276574885, 45.62000410508069, 62.816913711049835 
-143.41926728247157, 17.57012809153488, 21.518824502096514, -29.208985486535898, 46.02914566179521, 62.81223272527799 
-144.31124369449316, 17.187791131550274, 21.519338283576687, -29.504298197830458, 46.44075598677249, 62.80752701337038 
-145.2020742614226, 16.806969697955516, 21.519840233156593, -29.794726274823617, 46.85478533293537, 62.802798165570394 
-146.0918497017555, 16.427753409673535, 21.52033026146729, -30.080157794390914, 47.2711835175558, 62.7980478079426 
-146.9806591442093, 16.050231326819645, 21.52080829259983, -30.360475758687894, 47.689899895010925, 62.79327760168261 
-147.86859010713746, 15.674491966534127, 21.521274264039334, -30.63555779026099, 48.11088332726383, 62.7884892423829 
-148.7557284785835, 15.30062331776428, 21.521728126583223, -30.90527580820939, 48.53408215191601, 62.783684459253855 
-149.64215849688375, 14.928712854968271, 21.52216984424362, -31.1694956840038, 48.959444147664925, 62.77886501430133 
-150.5279627317365, 14.558847550714287, 21.52259939413412, -31.428076875455236, 49.386916496985, 62.77403270146083 
-151.41322206566355, 14.191113887150818, 21.52301676634105, -31.68087203720344, 49.81644574583349, 62.76918934568883 
-152.29801567579847, 13.825597866324598, 21.523421963779573, -31.92772660596269, 50.247977760164844, 62.76433680201227 
-153.1824210159434, 13.46238501932482, 21.523815002034624, -32.16847835861744, 50.68145767901644, 62.75947695453622 
-154.06651379884494, 13.10156041423322, 21.52419590918716, -32.40295694110422, 51.11682986390717, 62.75461171541087 
-154.95036797864643, 12.743208662861418, 21.524564725625716, -32.630983365846156, 51.554037844265395, 62.74974302375862 
-155.8340557334817, 12.38741392625776, 21.52492150384379, -32.85236947532223, 51.99302425857664, 62.74487284456178 
-156.71764744818296, 12.034259918967901, 21.525266308223152, -33.06691736915393, 52.433730790911135, 62.7400031675119 
-157.6012116970815, 11.683829912034193, 21.525599214803467, -33.274418791875554, 52.876098102459565, 62.735136005821616 
-158.48481522688826, 11.336206734720742, 21.52592031103859, -33.47465447832012, 53.320065757669006, 62.730273394999905 
-159.3685229396467, 10.9914727749521, 21.526229695539687, -33.667393453299994, 53.76557214453152, 62.725417391591904 
-160.252397875758, 10.649709978455274, 21.526527477805804, -33.85239228198698, 54.21255438853443, 62.72057007188385 
-161.13650119708373, 10.31099984659609, 21.52681377794202, -34.029394267101736, 54.660948259732784, 62.71573353057511 
-162.0208921701398, 9.975423432902435, 21.52708872636571, -34.19812858870382, 55.11068807235142, 62.71090987941722 
-162.9056281493979, 9.643061338268682, 21.5273524635012, -34.35830938203122, 55.561706576264854, 62.70610124582241 
-163.79076456072062, 9.313993704837062, 21.527605139463294, -34.50963474847113, 56.01393483963852, 62.701309771441636 
-164.67635488495898, 8.988300208553614, 21.527846913730162, -34.65178569434962, 56.4673021219423, 62.69653761071435 
-165.56245064174823, 8.66606005039803, 21.528077954805852, -34.784424991809594, 56.92173573646828, 62.69178692939063 
-166.44910137354316, 8.34735194628872, 21.528298439873, -34.90719595559918, 57.37716090139573, 62.68705990302742 
-167.33635462993885, 8.032254115666152, 21.528508554436225, -35.01972112912236, 57.8335005783497, 62.68235871545997 
-168.22425595232804, 7.720844268759858, 21.528708491956547, -35.121600872607445, 58.29067529729087, 62.67768555725018 
-169.11284885895097, 7.413199592546373, 21.528898453477435, -35.21241184573181, 58.74860296645579, 62.67304262411316 
-170.00217483039893, 7.109396735407592, 21.52907864724297, -35.2917053765069, 59.20719866593415, 62.66843211532353 
-170.8922732956359, 6.809511790501521, 21.52924928830851, -35.3590057076807, 59.666374423324505, 62.66385623210284 
-171.78318161860753, 6.513620277859589, 21.529410598144597, -35.41380811136525, 60.12603896974834, 62.659317175990054 
-172.6749350855106, 6.221797125227251, 21.529562804234246, -35.45557686205514, 60.5860974743253, 62.65481714719641 
-173.56756689279976, 5.934116647667036, 21.52970613966468, -35.48374305768531, 61.04645125501661, 62.65035834294625 
-174.461108136011, 5.650652525946073, 21.529840842713504, -35.497702277901844, 61.50699746352811, 62.645942955805786 
-175.35558779948548, 5.371477783732548, 21.529967156430263, -35.496812068317325, 61.967628741728454, 62.64157317200117 
-176.25103274707868, 5.0966647636285565, 21.53008532821372, -35.48038923922499, 62.42823284677832, 62.637251169727826 
-177.14746771394368, 4.826285102069568, 21.53019560938547, -35.447706967100764, 62.888692241884215, 62.632979117452635 
-178.04491529947802, 4.5604097031235895, 21.53029825476043, -35.39799168728496, 63.348883649281895, 62.62875917221088 
-178.94339596152616, 4.2991087112261805, 21.530393522214887, -35.330419766582736, 63.8086775617213, 62.6245934778996 
-179.8429280119305, 4.042451482890389, 21.53048167225241, -35.24411394524461, 64.26793770836488, 62.62048416356928 
179.2564723864758, 3.790506557433874, 21.530562967568503, -35.13813953900635, 64.72652047062725, 62.616433341715684 
178.3547912213391, 3.5433416267682216, 21.530637672614343, -35.011500393728085, 65.18427424307589, 62.61244310657364 
177.45201663062545, 3.3010235042989957, 21.530706053160248, -34.86313458786301, 65.64103873408597, 62.608515532414565 
176.54813890073677, 3.0636180929876833, 21.530768375859527, -34.69190988173635, 66.09664420050092, 62.604652671849834 
175.64315046280998, 2.831190352630185, 21.53082490781312, -34.4966189177141, 66.55091061010496, 62.60085655414161 
174.73704588710854, 2.60380426640913, 21.530875916135752, -34.27597418214175, 67.00364672527633, 62.59712918352314 
173.8298218754171, 2.381522806780678, 21.530921667524083, -34.028602748872075, 67.45464910077794, 62.593472537530396 
172.921477251352, 2.1644079007590937, 21.530962427827458, -33.753040835806225, 67.90370098828262, 62.58988856534692 
172.0120129485048, 1.9525203946654532, 21.530998461621756, -33.44772822078974, 68.35057113995555, 62.58637918616389 
171.10143199633796, 1.7459200184095256, 21.531030031787076, -33.11100258220264, 68.79501250327198, 62.582946287556794 
170.18973950375667, 1.5446653493765488, 21.53105739908951, -32.74109385357887, 69.23676079929695, 62.57959172388147 
169.27694264028509, 1.348813775993154, 21.531080821767905, -32.336118711660326, 69.6755329769692, 62.57631731469055 
168.3630506147811, 1.1584214610491974, 21.53110055512586, -31.8940753546739, 70.11102553662026, 62.57312484317237 
167.4480746516274, 0.9735433048542869, 21.531116851129664, -31.412838773719294, 70.54291271714806, 62.57001605461461 
166.53202796434527, 0.7942329083101254, 21.531129958012656, -30.890156776508793, 70.97084454311658, 62.566992654893845 
165.61492572658156, 0.6205425359813874, 21.53114011988654, -30.323647090927118, 71.39444473077508, 62.564056308993315 
164.69678504042824, 0.4525230792497163, 21.53114757636013, -29.710795957579016, 71.81330845583068, 62.561208639550316 
163.77762490204017, 0.2902240196367893, 21.531152562166035, -29.048958717070196, 72.22699999107377, 62.55845122543518 
162.8574661645258, 0.13369339238352584, 21.531155306795874, -28.335363010172294, 72.6350502290041, 62.5557856003636 
161.9363314980915, -0.017022249626511395, 21.531156034144335, -27.56711533734442, 73.03695411385539, 62.55321325154367 
161.0142453474321, -0.1618778715107862, 21.53115496216265, -26.741211866985385, 73.4321680193307, 62.55073561835971 
160.0912338863662, -0.3008299915094923, 21.53115230252198, -25.85455453572293, 73.82010712343371, 62.54835409109426 
159.1673249697255, -0.43383671549614183, 21.531148260287058, -24.903973642209017, 74.20014285049893, 62.54607000968962 
158.24254808251683, -0.5608577707881806, 21.53114303360052, -23.88625828693865, 74.57160047330325, 62.54388466255103 
157.3169342863842, -0.6818545391692932, 21.53113681337851, -22.798196137100202, 74.93375699523364, 62.54179928539241 
156.39051616340953, -0.7967900890359149, 21.53112978301767, -21.63662407222109, 75.28583946384154, 62.53981506012639 
155.46332775729874, -0.9056292065818495, 21.53112211811423, -20.39849125893801, 75.62702390218573, 62.53793311379995 
154.5354045120114, -1.0083384259361754, 21.531113986195308, -19.08093606696109, 75.9564350818681, 62.536154517577096 
153.60678320790072, -1.104886058171786, 21.53110554646287, -17.681377918782204, 76.27314739928637, 62.534480285769675 
152.67750189544108, -1.1952422191039798, 21.53109694955079, -16.197624601433294, 76.57618715070579, 62.53291137491762 
151.74759982663068, -1.279378855801106, 21.531088337295103, -14.627994697530259, 76.86453652702728, 62.53144868292 
150.8171173841636, -1.3572697717321616, 21.531079842517983, -12.971453563589586, 77.13713965858993, 62.530093048217736 
149.88609600847866, -1.4288906504795398, 21.531071588825604, -11.227759672897886, 77.39291102538505, 62.528845249028926 
148.95457812279804, -1.4942190779484692, 21.53106369042021, -9.397616175842527, 77.63074649907622, 62.52770600263825 
148.02260705627828, -1.5532345630087274, 21.531056251926554, -7.482820317697581, 77.84953719085124, 62.526675964740704 
147.0902269654053, -1.6059185565081817, 21.531049368233074, -5.486401098603193, 78.0481861362495, 62.525755728841254 
146.15748275377112, -1.6522544686022087, 21.53104312434789, -3.41273358183392, 78.22562765249415, 62.524945825710354 
145.22441999037736, -1.69222768434758, 21.531037595269897, -1.2676169733488025, 78.38084896123789, 62.52424672289658 
144.2910848266184, -1.7258255775144733, 21.531032845875092, 0.9416965223229721, 78.51291339633492, 62.5236588242973 
143.3575239121007, -1.7530375225751988, 21.53102893081824, 3.2065335885256423, 78.62098424043398, 62.523182469786875 
142.4237843094624, -1.7738549048336678, 21.531025894450124, 5.51690061002365, 78.70434799442664, 62.522817934903934 
141.48991340835914, -1.7882711286650232, 21.53102377075038, 7.8616564408509655, 78.76243572420879, 62.52256543059752 
140.55595883878877, -1.796281623840564, 21.531022583276062, 10.228753597266403, 78.79484109120429, 62.52242510303292 
139.62196838392768, -1.7978838499187504, 21.53102234512601, 12.605537213298572, 78.8013337850109, 62.52239703345672 
138.6879898926559, -1.793077298688996, 21.531023058920944, 14.979084491062476, 78.78186734415026, 62.5224812381219 
137.7540711919487, -1.7818634946607796, 21.53102471679962, 17.336562461569017, 78.73658075204216, 62.522677668273076 
136.82025999931207, -1.7642459935966484, 21.53102730043062, 19.66557957634574, 78.66579368113646, 62.522986210191284 
135.88660383544197, -1.7402303790935212, 21.531030781040158, 21.954507428448718, 78.56999576186074, 62.52340668529871 
134.9531499372823, -1.7098242572226816, 21.53103511945559, 24.192752598741272, 78.44983070402606, 62.523938850323496 
134.01994517165906, -1.6730372492447467, 21.53104026616479, 26.370964521775292, 78.3060764372737, 62.52458239752378 
133.08703594966158, -1.6298809824216407, 21.53104616139104, 28.481172282914095, 78.13962262788104, 62.52533695497089 
132.1544681419415, -1.5803690789533615, 21.531052735183657, 30.51685022777383, 77.95144696386974, 62.52620208689177 
131.2222869950938, -1.5245171430727338, 21.531059907523964, 32.47291820114892, 77.74259149696053, 62.52717729406955 
130.29053704928097, -1.4623427463370087, 21.531067588446614, 34.34568650559865, 77.5141401246772, 62.52826201430208 
129.35926205725428, -1.3938654111600588, 21.531075678176087, 36.132758057727166, 77.26719803278696, 62.5294556229178 
128.42850490492216, -1.3191065926342038, 21.5310840672781, 37.83290085289194, 77.00287363946548, 62.53075743334829 
127.49830753360617, -1.2380896586953127, 21.531092636825857, 39.445903089768116, 76.72226332183897, 62.53216669775672 
126.56871086412015, -1.150839868689381, 21.53110125858078, 40.972421618143095, 76.42643898511282, 62.53368260772134 
125.6397547227989, -1.0573843504031715, 21.531109795187625, 42.41383220957277, 76.11643836509782, 62.5353042949733 
124.71147776959522, -0.9577520756252332, 21.531118100383583, 43.7720878836747, 75.7932578379749, 62.53703083218765 
123.78391742835444, -0.851973834307594, 21.53112601922118, 45.049589415204196, 75.45784744154952, 62.53886123382667 
122.85710981936808, -0.7400822074015795, 21.531133388304678, 46.249070351834824, 75.11110778149698, 62.54079445703437 
121.93108969429743, -0.622111538444327, 21.531140036039606, 47.373497452902654, 74.75388849451036, 62.54282940258107 
121.00589037354945, -0.49809790397534875, 21.531145782895155, 48.42598641435581, 74.38698795861286, 62.54496491585684 
120.08154368617664, -0.3680790828647903, 21.531150441679053, 49.40973203491797, 74.01115397134053, 62.54719978791245 
119.158079912364, -0.23209452463717933, 21.53115381782457, 50.3279515445184, 73.62708515290223, 62.54953275654677 
118.23552772855506, -0.09018531687616411, 21.531155709689244, 51.183839595495336, 73.23543286935046, 62.55196250743909 
117.31391415525978, 0.05760584820294781, 21.531155908865035, 51.980533351455655, 72.83680350730194, 62.554487675324694 
116.39326450757736, 0.21123470792486987, 21.531154200499248, 52.7210861482669, 72.43176096506782, 62.5571068452129 
115.47360234845692, 0.3706554639816236, 21.53115036362625, 53.40844830697659, 72.02082925431039, 62.55981855364528 
114.55494944470985, 0.5358208178263565, 21.531144171508952, 54.045453819847914, 71.60449513126184, 62.5626212899931 
113.6373257257777, 0.7066820065446134, 21.5311353919902, 54.63481178706797, 71.18321069724554, 62.56551349779199 
112.72074924525164, 0.8831888391140673, 21.531123787853126, 55.17910163883153, 70.7573959250768, 62.568493576112616 
111.80523614512933, 1.0652897329643174, 21.531109117190304, 55.680771326541134, 70.32744108135212, 62.571559880965005 
110.89080062278717, 1.2529317507492463, 21.531091133781086, 56.14213780275902, 69.89370902515647, 62.574710726735844 
109.9774549006386, 1.4460606372451823, 21.53106958747661, 56.565389229972475, 69.45653737181357, 62.577944387655855 
109.06520919843987, 1.6446208562897646, 21.531044224592076, 56.952588462650176, 69.01624051641105, 62.58125909929662 
108.15407170819907, 1.8485556276777673, 21.53101478830561, 57.305677436050146, 68.57311151634484, 62.58465306009396 
107.24404857163617, 2.057806963931908, 21.530981019063418, 57.62648217001141, 68.12742383537334, 62.58812443289712 
106.33514386013657, 2.2723157068687057, 21.53094265499042, 57.91671815804639, 67.67943295393037, 62.59167134654109 
105.42735955713378, 2.492021563881575, 21.53089943230607, 58.17799596307926, 67.22937785194435, 62.59529189744086 
104.52069554285254, 2.7168631438655804, 21.53085108574471, 58.41182688273126, 66.77748237133015, 62.59898415120507 
103.615149581338, 2.946777992711005, 21.53079734897988, 58.619628580616016, 66.32395646580903, 62.60274614426797 
102.71071730969311, 3.181702628295154, 21.530737955052047, 58.8027306069953, 65.86899734588239, 62.606575885537154 
101.80739222944193, 3.4215725749047357, 21.530672636799252, 58.96237975351897, 65.41279052672888, 62.61047135805564 
100.90516569993349, 3.6663223970241, 21.53060112729005, 59.099745203624984, 64.95551078657792, 62.61443052067606 
100.00402693369868, 3.9158857324271805, 21.530523160258127, 59.21592345334859, 64.49732304279144, 62.618451309745375 
99.10396299366927, 4.170195324514292, 21.530438470538197, 59.311942987488855, 64.03838315249523, 62.62253164079794 
98.20495879216774, 4.429183053837718, 21.53034679450233, 59.38876870389072, 63.578838644175, 62.6266694102554 
97.30699709157422, 4.692779968763292, 21.530247870496524, 59.447306084501385, 63.118829386207786, 62.630862497131204 
96.4100585065771, 4.960916315217976, 21.530141439276484, 59.48840511624447, 62.65848819785552, 62.635108764737964 
95.51412150791275, 5.233521565476863, 21.53002724444248, 59.512863967943964, 62.197941407811996, 62.63940606239607 
94.61916242750053, 5.5105244459457055, 21.52990503287239, 59.52143243177954, 61.73730936497682, 62.64375222714132 
93.72515546487963, 5.791852963898579, 21.529774555152535, 59.51481513927261, 61.27670690573329, 62.64814508542992 
92.8320726948554, 6.0774344331328685, 21.529635566005677, 59.49367456275779, 60.81624378163531, 62.65258245483928 
91.93988407626432, 6.367195498507057, 21.52948782471564, 59.45863381381405, 60.356025051061245, 62.65706214576238 
91.04855746176827, 6.661062159329714, 21.52933109554802, 59.410279250326006, 59.896151438072664, 62.66158196309438 
90.1580586085915, 6.95895979157071, 21.529165148166264, 59.349162903795815, 59.436719661420106, 62.66613970790923 
89.26835119011567, 7.260813168868856, 21.52898975804292, 59.27580473829837, 58.97782273636686, 62.67073317912532 
88.3793968082517, 7.5665464823126065, 21.528804706865085, 59.190694752118276, 58.519550251755206, 62.67536017515766 
87.49115500650964, 7.876083358973419, 21.528609782933952, 59.09429493266436, 58.06198862451264, 62.680018495555494 
86.60358328369246, 8.18934687917358, 21.528404781557533, 58.98704107475908, 57.60522133359146, 62.684705942623545 
85.71663710814174, 8.506259592473347, 21.52818950543632, 58.86934447186738, 57.14932913514763, 62.68942032302535 
84.83026993246897, 8.826743532364047, 21.527963765041275, 58.74159348928347, 56.69439026059673, 62.69415944936689 
83.94443320870907, 9.150720229656748, 21.527727378983617, 58.60415502774338, 56.24048059903067, 62.69892114175964 
83.05907640383806, 9.478110724557839, 21.527480174376, 58.457375885390555, 55.787673865341155, 62.70370322936045 
82.17414701560128, 9.808835577425313, 21.527221987184515, 58.30158402549485, 55.33604175526965, 62.70850355188825 
81.28959058860309, 10.142814878201653, 21.526952662571123, 58.13708975681824, 54.88565408849052, 62.71331996111468 
80.4053507306151, 10.47996825452091, 21.52667205522601, 57.964186833037516, 54.43657894073162, 62.718150322328725 
79.5213691290639, 10.82021487848991, 21.526380029689467, 57.78315347717424, 53.988882765843435, 62.72299251577255 
78.63758556766624, 11.163473472144872, 21.52607646066281, 57.594253336551034, 53.54263050864468, 62.727844438048706 
77.75393794318381, 11.50966231158703, 21.525761233308003, 57.39773637338541, 53.09788570929583, 62.73270400349629 
76.87036228227721, 11.858699229801912, 21.525434243535464, 57.1938396957532, 52.65471059988439, 62.737569145535616 
75.98679275844273, 12.210501618169229, 21.52509539827978, 56.982788333298075, 52.21316619384276, 62.74243781797991 
75.10316170902387, 12.564986426671252, 21.524744615762913, 56.76479596173398, 51.77331236876457, 62.747307996313054 
74.21939965229427, 12.92207016280953, 21.52438182574449, 56.54006557988008, 51.33520794313385, 62.75217767893213 
73.33543530461556, 13.281668889241141, 21.52400696975894, 56.30879014268376, 50.898910747435785, 62.75704488835399 
72.45119559768106, 13.643698220146932, 21.52362000133902, 56.07115315342377, 50.4644776900765, 62.761907672384865 
71.5666056958619, 14.008073316345884, 21.52322088622554, 55.82732921804193, 50.03196481850089, 62.766764105251795 
70.68158901368011, 14.374708879170903, 21.522809602562923, 55.57748456432698, 49.601427375864446, 62.77161228869555 
69.79606723343973, 14.743519143122889, 21.522386141080297, 55.321777528465915, 49.17291985358287, 62.77645035302353 
68.90996032305468, 15.114417867321084, 21.521950505257998, 55.06035901128705, 48.746496040056115, 62.78127645812259 
