# MEX_intpoint_lon [deg], MEX_intpoint_lat [deg], MEX_intpoint_angle [deg], TGO_intpoint_lon [deg], TGO_intpoint_lat [deg], TGO_intpoint_angle [deg] 
-139.08830254717117, 19.537435254417577, 21.617003134252183, -27.583176638863026, 42.7998712909931, 62.861038193811616 
-139.98414318612717, 19.143411068758184, 21.617586108584028, -27.881176588790733, 43.20362235794983, 62.85641672591829 
-140.87835937752953, 18.750475265032435, 21.618157532020856, -28.174451055024573, 43.60998950043129, 62.851762325613414 
-141.77105172194265, 18.358721079544214, 21.618717244423063, -28.46290284256951, 44.018921132988034, 62.847076453326366 
-142.66231927814778, 17.968241092218662, 21.61926509964504, -28.746430776572087, 44.43036524531149, 62.84236061028881 
-143.55225953962434, 17.579127248546605, 21.619800965550436, -29.02492947087628, 44.84426937814753, 62.83761633801673 
-144.44096841219292, 17.191470880584134, 21.620324724010363, -29.298289083590955, 45.260580597168726, 62.83284521774361 
-145.32854019267688, 16.80536272697085, 21.620836270884887, -29.566395058797145, 45.679245464682516, 62.82804886980494 
-146.2150675484528, 16.420892951932558, 21.621335515987656, -29.829127853459894, 46.100210009043515, 62.82322895297446 
-147.10064149776736, 16.03815116323614, 21.621822383033855, -30.086362648540018, 46.52341969162622, 62.81838716375239 
-147.98535139071052, 15.657226429066121, 21.622296809571527, -30.337969043227396, 46.94881937120244, 62.813525235605724 
-148.86928489074236, 15.278207293794344, 21.622758746896526, -30.58381073113774, 47.37635326555428, 62.808644938161514 
-149.75252795668104, 14.90118179261587, 21.623208159951037, -30.823745157229343, 47.805964910139124, 62.803748076353436 
-150.6351648250692, 14.526237465025432, 21.623645027206013, -31.05762315410515, 48.23759711360695, 62.798836489521676 
-151.5172779928432, 14.1534613671108, 21.624069340527637, -31.285288556266725, 48.67119190995297, 62.79391205046756 
-152.39894820023912, 13.782940082640327, 21.62448110502801, -31.506577790782032, 49.106690507069814, 62.78897666446292 
-153.2802544138783, 13.414759732923773, 21.624880338900287, -31.72131944271583, 49.54403323144222, 62.78403226821502 
-154.16127380998154, 13.049005985426398, 21.625267073238522, -31.929333793551688, 49.983159468705296, 62.7790808287879 
-155.04208175767062, 12.685764061118158, 21.625641351842507, -32.13043233070521, 50.424007599761595, 62.77412434248095 
-155.92275180232318, 12.325118740540628, 21.626003231007804, -32.32441722609181, 50.86651493212633, 62.76916483366526 
-156.80335564895273, 11.967154368576008, 21.626352779301335, -32.51108078156568, 51.310617626139084, 62.764204353578826 
-157.68396314559664, 11.611954857903555, 21.626690077322806, -32.6902048388922, 51.756250615649314, 62.75924497908165 
-158.56464226669684, 11.259603691130456, 21.627015217452303, -32.86156015175122, 52.20334752274605, 62.75428881137167 
-159.44545909647047, 10.910183921585148, 21.627328303584502, -33.02490571709599, 52.6518405660647, 62.74933797466225 
-160.32647781227, 10.563778172762824, 21.627629450849586, -33.17998806300924, 53.101660462160254, 62.74439461482267 
-161.20776066794159, 10.220468636414196, 21.627918785321604, -33.3265404900073, 53.552736319390526, 62.739460897982866 
-162.08936797719582, 9.880337069269856, 21.628196443714405, -33.46428226254349, 54.004995523701744, 62.734539009102974 
-162.97135809701163, 9.543464788394742, 21.628462573065644, -33.592917747256074, 54.45836361565326, 62.72963115050981 
-163.8537874111001, 9.209932665168006, 21.628717330409312, -33.71213549429335, 54.912764157957874, 62.72473954040059 
-164.73671031346078, 8.87982111788618, 21.628960882437166, -33.821607257833534, 55.36811859274664, 62.7198664113162 
-165.6201791920698, 8.553210102988544, 21.62919340514955, -33.920986951699774, 55.82434608769611, 62.71501400858439 
-166.50424441274228, 8.230179104906052, 21.629415083496085, -34.00990953575662, 56.281363370074956, 62.71018458873528 
-167.38895430322063, 7.910807124536744, 21.629626111006626, -34.08798982856779, 56.73908454768236, 62.70538041789007 
-168.2743551375419, 7.595172666352832, 21.62982668941313, -34.15482124160069, 57.19742091555471, 62.70060377012424 
-169.16049112074472, 7.283353724146753, 21.630017028262692, -34.20997443009099, 57.656280747216385, 62.69585692580771 
-170.04740437398019, 6.975427765425603, 21.63019734452255, -34.25299585553825, 58.11556906913845, 62.69114216992247 
-170.93513492009612, 6.671471714465832, 21.630367862177334, -34.28340625470418, 58.57518741694882, 62.68646179036 
-171.82372066976774, 6.371561934042571, 21.630528811819204, -34.30069900994386, 59.035033571807645, 62.68181807619999 
-172.71319740825254, 6.075774205850216, 21.630680430231436, -34.304338415737135, 59.49500127522144, 62.67721331597203 
-173.60359878285118, 5.784183709633741, 21.630822959965943, -34.29375783642329, 59.95497992041873, 62.67264979590178 
-174.49495629115816, 5.496865001052964, 21.630956648915262, -34.26835775041019, 60.41485421824955, 62.66812979814389 
-175.38729927019173, 5.213891988304516, 21.63108174987974, -34.227503676561746, 60.87450383540005, 62.66365559900307 
-176.28065488649275, 4.935337907529424, 21.631198520130187, -34.17052397911115, 61.33380300253287, 62.65922946714525 
-177.1750481272867, 4.661275297037044, 21.631307220966924, -34.09670754835493, 61.792620089775205, 62.65485366180076 
-178.07050179280432, 4.3917759703790376, 21.63140811727548, -34.00530135561972, 62.25081714678094, 62.6505304309613 
-178.96703648985797, 4.126910988310314, 21.631501477079762, -33.895507882641, 62.708249404393, 62.646262009572666 
-179.86467062677303, 3.8667506296769436, 21.631587571093096, -33.766482427644895, 63.16476473473188, 62.64205061772525 
179.236579590227, 3.6113643612741266, 21.631666672267933, -33.617330293199075, 63.62020306634033, 62.63789845884415 
178.33670015908004, 3.360820806720638, 21.631739055344557, -33.44710386443402, 64.0743957508292, 62.633807717880806 
177.43567928229106, 3.115187714399383, 21.631804996399676, -33.25479959069844, 64.52716487730478, 62.629780559508326 
176.53350736558275, 2.874531924516805, 21.631864772395154, -33.0393548892992, 64.9783225307258, 62.62581912632235 
175.63017701469343, 2.638919335337291, 21.631918660727834, -32.799644996918666, 65.42766999025204, 62.621925537049506 
174.72568303022393, 2.408414868651738, 21.631966938780735, -32.53447980287207, 65.87499686362985, 62.61810188476544 
173.8200224004396, 2.183082434542843, 21.63200988347642, -32.242600708880076, 66.32008015373206, 62.61435023512461 
172.91319429193274, 1.9629848955124385, 21.632047770832997, -31.922677572843597, 66.76268325356925, 62.61067262460346 
172.00520003805758, 1.7481840300396418, 21.632080875523382, -31.57330580963004, 67.20255486644919, 62.60707105875937 
171.09604312505067, 1.5387404956411836, 21.632109470438404, -31.193003740558026, 67.63942784853535, 62.60354751050734 
170.18572917575491, 1.33471379150831, 21.632133826254385, -30.78021030559028, 68.07301797190229, 62.600103918416295 
169.27426593087037, 1.1361622207972772, 21.632154211005556, -30.33328327871793, 68.50302260737712, 62.596742185026926 
168.3616632276597, 0.9431428526531442, 21.632170889662163, -29.850498158150625, 68.92911932808504, 62.59346417519332 
167.44793297604207, 0.7557114840487307, 21.63218412371459, -29.330047939172147, 69.35096443678209, 62.590271714450125 
166.53308913201613, 0.573922601523143, 21.632194170764148, -28.770044019241585, 69.76819142288936, 62.587166587407445 
165.61714766835843, 0.3978293429059508, 21.63220128412101, -28.168518532275623, 70.18040935877312, 62.58415053617485 
164.70012654255257, 0.227483459115167, 21.63220571240992, -27.523428461895207, 70.5872012494114, 62.58122525881728 
163.78204566191076, 0.06293527611860616, 21.632207699184082, -26.83266194113046, 70.98812235531221, 62.57839240784375 
162.86292684585848, -0.09576634285050035, 21.63220748254778, -26.09404720733515, 71.38269851558799, 62.575653588731534 
161.94279378536152, -0.24857403473170228, 21.632205294788303, -25.305364743581592, 71.77042450661195, 62.573010358487004 
161.02167199948357, -0.39544197363667344, 21.632201362017497, -24.464363198003078, 72.15076248183823, 62.57046422424542 
160.0995887890722, -0.5363259073165472, 21.632195903823597, -23.56877972515679, 72.52314055025587, 62.56801664191089 
159.17657318758054, -0.6711831930040789, 21.63218913293363, -22.616365431127132, 72.88695156457477, 62.565669014838804 
158.25265590904203, -0.7999728325375415, 21.632181254886987, -21.60491661691385, 73.24155220548167, 62.563422692561645 
157.32786929322586, -0.9226555066739226, 21.632172467720505, -20.53231248999106, 73.58626246481373, 62.56127896956058 
156.40224724801078, -1.039193608499704, 21.632162961665443, -19.396559936248003, 73.92036564766065, 62.559239084083735 
155.47582518902607, -1.1495512758489723, 21.632152918856924, -18.19584579574636, 74.2431090302251, 62.55730421701306 
154.5486399766178, -1.2536944226399336, 21.632142513055957, -16.928596846180678, 74.55370532529783, 62.55547549078086 
153.62072985021007, -1.351590769043108, 21.632131909384682, -15.593547348202733, 74.85133511845164, 62.553753968337844 
152.69213436014047, -1.443209870396525, 21.632121264075025, -14.189813530766706, 75.13515044298249, 62.55214065217362 
151.76289429706011, -1.5285231447861216, 21.632110724231083, -12.716973783940336, 75.40427965715847, 62.55063648339098 
150.8330516189972, -1.6075038992124409, 21.632100427605685, -11.175152586126373, 75.65783377005063, 62.54924234083541 
149.9026493761948, -1.6801273542680248, 21.632090502391325, -9.565105347173391, 75.89491432863242, 62.547959040280524 
148.97173163384082, -1.746370667253786, 21.632081067025716, -7.888300449585535, 76.11462292592952, 62.54678733367084 
148.04034339281873, -1.8062129536663658, 21.63207223001235, -6.146993899112316, 76.31607231590695, 62.54572790842282 
147.10853050861596, -1.8596353069930651, 21.632064089756142, -4.344291267071657, 76.49839902562641, 62.54478138678488 
146.17633960853388, -1.9066208167554286, 21.63205673441455, -2.4841911588117522, 76.66077724198652, 62.54394832525743 
145.24381800735213, -1.9471545847473557, 21.632050241764155, -0.5716044249752391, 76.80243362563891, 62.54322921407356 
144.31101362160658, -1.9812237394190193, 21.632044679083158, 1.3876561204524993, 76.92266257885642, 62.5426244767412 
143.3779748826454, -2.008817448362928, 21.632040103049633, 3.3869195104767065, 77.02084138102536, 62.5421344696472 
142.4447506486352, -2.0299269288643087, 21.632036559655944, 5.418736136279192, 77.09644452091302, 62.54175948172387 
141.51139011569205, -2.044545456483572, 21.63203408413925, 7.474992705689054, 77.14905651460954, 62.54149973417852 
140.57794272831725, -2.052668371644699, 21.632032700928345, 9.54705962049549, 77.17838251465567, 62.5413553802864 
139.64445808932112, -2.0542930842093035, 21.632032423606717, 11.625964934455565, 77.18425609587015, 62.54132650524693 
138.71098586941906, -2.0494190760223154, 21.632033254892104, 13.70258657826304, 77.16664374493513, 62.54141312610405 
137.77757571668747, -2.038047901421542, 21.63203518663235, 15.767852753972, 77.12564577278931, 62.54161519173003 
136.84427716606658, -2.0201831857094277, 21.632038199817725, 17.812939582989404, 77.06149359200775, 62.541932582873635 
135.91113954909687, -1.99583062159183, 21.632042264609613, 19.829455368268135, 76.97454353098615, 62.54236511227164 
134.9782119040761, -1.9649979635946642, 21.632047340385597, 21.80960215871816, 76.86526756714206, 62.54291252482431 
134.04554288681965, -1.9276950204755605, 21.63205337580076, 23.746307474643945, 76.73424153006005, 62.54357449783438 
133.1131806822073, -1.883933645653778, 21.63206030886525, 25.63332174279644, 76.5821314370921, 62.54435064130883 
132.1811729166923, -1.8337277256876257, 21.632068067037977, 27.465279825955008, 76.40967867189806, 62.54524049832381 
131.24956657194764, -1.7770931668343337, 21.632076567336217, 29.237727666166943, 76.21768470333053, 62.546243545451446 
130.31840789981663, -1.7140478797333139, 21.632085716461155, 30.94711722475818, 76.00699597784235, 62.54735919324865 
129.38774233873085, -1.6446117622588232, 21.63209541093899, 32.59077443916892, 75.77848951774719, 62.54858678680666 
128.45761443175064, -1.568806680593671, 21.63210553727764, 34.16684578394724, 75.53305963630618, 62.549925606361334 
127.52806774637698, -1.486656448580419, 21.63211597213862, 35.67422927325575, 75.27160605381107, 62.55137486796252 
126.59914479627544, -1.3981868054112663, 21.632126582524055, 37.11249549096416, 74.99502357880411, 62.552933724202454 
125.6708869650445, -1.3034253917224732, 21.632137225978433, 38.48180362748351, 74.70419341380216, 62.55460126500163 
124.743334432152, -1.2024017241630567, 21.632147750804908, 39.78281668653716, 74.39997606009327, 62.55637651845158 
123.81652610115381, -1.095147168511618, 21.632157996295895, 41.01661912767453, 74.0832057328028, 62.55825845171304 
122.89049953029969, -0.9816949114184593, 21.632167792977558, 42.18463932970717, 73.75468615450512, 62.5602459719687 
121.96529086562103, -0.862079930853494, 21.63217696286789, 43.288578462654094, 73.41518757063953, 62.562337927429255 
121.04093477658546, -0.7363389653431721, 21.632185319748167, 44.3303466784779, 73.06544481955335, 62.56453310839106 
120.11746439439224, -0.6045104820821612, 21.632192669447228, 45.312006987900006, 72.70615629063474, 62.56683024834478 
119.19491125297314, -0.4666346440077284, 21.632198810138323, 46.23572677937148, 72.33798361243694, 62.56922802513292 
118.27330523275158, -0.3227532759263458, 21.63220353264816, 47.10373664394361, 71.96155192611558, 62.57172506215504 
117.35267450720357, -0.17290982978361571, 21.632206620777584, 47.91829597811898, 71.57745061563685, 62.57431992961942 
116.43304549225337, -0.017149349169670706, 21.632207851633698, 48.68166472592937, 71.18623438335649, 62.57701114583898 
115.51444279852555, 0.14448156684723104, 21.632206995972755, 49.3960805724352, 70.78842457650465, 62.579797178570345 
114.59688918646651, 0.3119348004657359, 21.63220381855355, 50.06374089668791, 70.38451068604431, 62.58267644639422 
113.68040552433773, 0.4851607523817309, 21.632198078500714, 50.68678881883566, 69.97495195383235, 62.58564732013513 
112.76501074907361, 0.6641083794112209, 21.63218952967758, 51.26730272224663, 69.56017903677753, 62.5887081243195 
111.8507218299878, 0.8487252324132414, 21.63217792106788, 51.807288688705874, 69.140595687703, 62.591857138668956 
110.93755373530267, 1.0389574944215094, 21.632162997166084, 52.3086753466432, 68.71658042194423, 62.595092599628686 
110.02551940146836, 1.234750018894439, 21.63214449837565, 52.77331069459577, 68.28848814647233, 62.598412701927394 
109.11462970522965, 1.4360463679946802, 21.632122161414667, 53.20296052181233, 67.85665173469276, 62.60181560016838 
108.20489343839151, 1.642788850811028, 21.63209571972852, 53.59930810329954, 67.4213835352074, 62.6052994104484 
107.2963172852265, 1.854918561437492, 21.632064903908827, 53.963954896758004, 66.98297680692062, 62.60886221200386 
106.38890580246166, 2.072375416826196, 21.63202944211827, 54.298422013387146, 66.54170707608189, 62.612502048881176 
105.48266140177519, 2.2950981943335265, 21.63198906052059, 54.604152273488005, 66.09783341333895, 62.61621693162988 
104.57758433472875, 2.5230245688809423, 21.631943483715435, 54.88251269142685, 65.65159963075855, 62.620004839016474 
103.67367268005547, 2.7560911496548686, 21.63189243517717, 55.13479726326457, 65.20323540016946, 62.62386371975688 
102.7709223332197, 2.994233516272744, 21.63183563769731, 55.36222995468993, 64.75295729519205, 62.627791494265566 
101.86932699816087, 3.2373862543450174, 21.631772813829954, 55.56596780733344, 64.30096976002045, 62.63178605641932 
100.96887818112933, 3.4854829903662923, 21.631703686339545, 55.74710409857917, 63.847466008483636, 62.6358452753336 
100.06956518652107, 3.738456425871402, 21.631627978650435, 55.906671504105034, 63.39262885718614, 62.63996699714961 
99.1713751146142, 3.996238370795733, 21.631545415297698, 56.045645223997425, 62.936631496659885, 62.644149046829725 
98.27429286110952, 4.2587597759820115, 21.631455722378547, 56.16494604278394, 62.47963820448413, 62.64838922995988 
97.3783011183755, 4.5259507647792745, 21.631358628003728, 56.26544330144825, 62.0218050042745, 62.65268533455611 
96.48338037829835, 4.797740663682576, 21.631253862748395, 56.347957765724345, 61.56328027433262, 62.65703513287406 
95.58950893663582, 5.074058031965725, 21.631141160101834, 56.413264379964545, 61.10420530959621, 62.66143638321889 
94.69666289877608, 5.354830690261981, 21.631020256915424, 56.46209489985314, 60.64471484035462, 62.665886831753916 
93.80481618680135, 5.639985748051457, 21.630890893848242, 56.49514040037233, 60.184937511002076, 62.67038421430594 
92.91394054775863, 5.929449630016525, 21.630752815809803, 56.513053657875645, 59.72499632190371, 62.67492625816554 
92.0240055630412, 6.223148101230116, 21.630605772399274, 56.51645140700992, 59.26500903724678, 62.67951068388 
91.13497865878566, 6.521006291144615, 21.630449518340615, 56.50591647465815, 58.80508856155296, 62.68413520703743 
90.24682511719288, 6.822948716351994, 21.630283813913056, 56.48199979413896, 58.34534328733415, 62.68879754004016 
89.35950808868299, 7.128899302089022, 21.630108425376445, 56.44522230366618, 57.88587741618972, 62.69349539386527 
88.472988604798, 7.438781402463823, 21.62992312539072, 56.396076733604595, 57.42679125546715, 62.69822647981087 
87.58722559176886, 7.752517819383271, 21.629727693429153, 56.33502928740288, 56.96818149244231, 62.7029885112262 
86.70217588466741, 8.070030820162856, 21.629521916184704, 56.262521221282746, 56.51014144781993, 62.70777920522375 
85.81779424206789, 8.391242153803807, 21.629305587968968, 56.178970327846976, 56.052761310209085, 62.712596284371834 
84.93403336114628, 8.716073065924094, 21.6290785111032, 56.08477232876318, 55.59612835309436, 62.717437478366044 
84.05084389315088, 9.04444431233299, 21.628840496300956, 55.980302181608785, 55.140327135697085, 62.72230052567775 
83.16817445918178, 9.37627617124056, 21.62859136304172, 55.86591530583911, 54.685439689006365, 62.72718317517817 
82.28597166622201, 9.711488454095974, 21.628330939935154, 55.7419487326828, 54.23154568815235, 62.7320831877366 
81.40418012336792, 10.05000051505069, 21.628059065075384, 55.6087221835836, 53.778722612196205, 62.7369983377913 
80.52274245821253, 10.391731259044118, 21.627775586384946, 55.46653908160712, 53.327045892321564, 62.741926414891296 
79.64159933333954, 10.736599148511987, 21.627480361947867, 55.31568750001933, 52.8765890493286, 62.746865225208026 
78.7606894628935, 11.084522208718669, 21.627173260331446, 55.15644105202832, 52.42742382125726, 62.75181259301561 
77.87994962919514, 11.435418031717218, 21.626854160896304, 54.98905972546354, 51.979620281895215, 62.75676636213777 
76.99931469937943, 11.789203778941866, 21.626522954094337, 54.813790665953306, 51.53324695086449, 62.76172439736096 
76.11871764203728, 12.145796182439964, 21.62617954175412, 54.63086891195117, 51.08837089592031, 62.76668458581191 
75.23808954385106, 12.505111544751331, 21.625823837353334, 54.44051808475947, 50.64505782804465, 62.77164483829878 
74.35735962621864, 12.867065737444708, 21.625455766277984, 54.24295103650254, 50.203372189866954, 62.7766030906144 
73.47645526186774, 13.231574198322646, 21.625075266067885, 54.03837045881545, 49.7633772379005, 62.78155730480107 
72.59530199147018, 13.598551927306957, 21.624682286648202, 53.82696945483608, 49.32513511904257, 62.7865054703756 
71.71382354027132, 13.967913481018945, 21.6242767905467, 53.608932076919295, 48.88870694174878, 62.79144560551337 
70.83194183475831, 14.339572966069197, 21.623858753096286, 53.384433832332995, 48.45415284225889, 62.79637575819121 
69.9495770193972, 14.713444031073813, 21.62342816262277, 53.15364215904456, 48.02153204621932, 62.80129400728745 
