# MEX_intpoint_lon [deg], MEX_intpoint_lat [deg], MEX_intpoint_angle [deg], TGO_intpoint_lon [deg], TGO_intpoint_lat [deg], TGO_intpoint_angle [deg] 
-139.41077717504734, 19.61307004858056, 21.838804330017357, -27.37241742543364, 40.12448962252937, 62.91865684147355 
-140.2992946101587, 19.207208263902412, 21.83941337052547, -27.630683641348924, 40.53746361294856, 62.913965056524404 
-141.1861876828089, 18.802501087628542, 21.840010034556627, -27.883615043297315, 40.95292421134736, 62.909235465196765 
-142.07156189128497, 18.399042839453497, 21.840594155284677, -28.131105198601674, 41.37081242648552, 62.90446955555918 
-142.95552104066826, 17.996927177343064, 21.841165580878897, -28.37304355438551, 41.791068681108456, 62.899668862345 
-143.83816722402423, 17.596247122411345, 21.841724174518898, -28.60931521443269, 42.21363277891604, 62.894834966417584 
-144.71960080456415, 17.197095082714895, 21.842269814391408, -28.839800705024675, 42.63844386906167, 62.88996949417979 
-145.59992039863042, 16.799562875931, 21.842802393668993, -29.06437572912406, 43.065440408045355, 62.88507411692835 
-146.47922285936878, 16.403741750888162, 21.843321820470816, -29.28291090823759, 43.49456011885533, 62.88015055015332 
-147.35760326096153, 16.009722407919583, 21.84382801780551, -29.495271511254394, 43.92573994720085, 62.875200552782566 
-148.23515488330656, 15.617595018011407, 21.844320923496287, -29.701317169517047, 44.35891601466719, 62.87022592637253 
-149.11196919703806, 15.227449240719533, 21.84480049008834, -29.900901577343298, 44.7940235686109, 62.865228514244464 
-149.98813584879363, 14.839374240830196, 21.845266684738842, -30.093872177175168, 45.23099692859952, 62.86021020056822 
-150.86374264664374, 14.45345870374042, 21.845719489089657, -30.280069828491257, 45.66976942918484, 62.85517290939245 
-151.73887554560764, 14.069790849536677, 21.846158899122884, -30.459328459574888, 46.11027335878293, 62.850118603623216 
-152.61361863319004, 13.688458445750234, 21.846584924999494, -30.631474701189102, 46.55243989441691, 62.845049283951006 
-153.4880541148803, 13.309548818769823, 21.846997590881426, -30.7963275011662, 46.996199032059224, 62.839966987726896 
-154.36226229956674, 12.93314886389269, 21.847396934737198, -30.953697718878303, 47.4414795122913, 62.83487378778901 
-155.2363215848245, 12.559345053996802, 21.84778300813147, -31.10338769851423, 47.88820874097599, 62.82977179123973 
-156.11030844204618, 12.188223446817593, 21.848155875998724, -31.245190820049878, 48.336312704615885, 62.82466313817485 
-156.9842974013894, 11.819869690814336, 21.848515616401535, -31.378891026763277, 48.78571588004553, 62.819550000365496 
-157.85836103652673, 11.45436902961178, 21.8488623202736, -31.50426232811386, 49.23634113807968, 62.814434579893884 
-158.7325699491876, 11.091806305004548, 21.849196091148006, -31.621068276779766, 49.68810964071113, 62.80931910774397 
-159.60699275349182, 10.73226595851226, 21.849517044871067, -31.72906141862775, 50.140940731421935, 62.80420584234825 
-160.48169606007963, 10.375832031475422, 21.84982530930208, -31.827982714380514, 50.59475181813947, 62.79909706809173 
-161.35674446005154, 10.022588163682832, 21.85012102399941, -31.91756093174846, 51.04945824833525, 62.79399509377443 
-162.23220050873766, 9.672617590522906, 21.850404339893476, -31.997512006808638, 51.50497317572778, 62.78890225103362 
-163.1081247093222, 9.326003138652966, 21.850675418946828, -32.06753837344796, 51.96120741801278, 62.783820892727455 
-163.984575496357, 8.982827220181678, 21.85093443380193, -32.12732825974392, 52.418069305004174, 62.77875339128104 
-164.8616092192024, 8.643171825362023, 21.851181567417125, -32.176554950238376, 52.87546451652591, 62.77370213699661 
-165.7392801254416, 8.307118513793341, 21.851417012691176, -32.21487601317506, 53.33329590935186, 62.768669536329305 
-166.6176403443194, 7.974748404133417, 21.85164097207693, -32.2419324919253, 53.79146333244374, 62.76365801013018 
-167.49673987026316, 7.646142162323074, 21.851853657184673, -32.25734806002748, 54.24986342969024, 62.758669991858035 
-168.37662654654864, 7.321379988328135, 21.85205528837551, -32.26072813952194, 54.70838942930142, 62.753707925761624 
-169.25734604917898, 7.000541601405582, 21.852246094345603, -32.2516589825867, 55.16693091896294, 62.748774265034235 
-170.1389418710512, 6.6837062239031475, 21.85242631170146, -32.22970671688212, 55.62537360580518, 62.743871469942185 
-171.02145530648792, 6.370952563603942, 21.852596184527215, -32.194416355508764, 56.08359906019326, 62.73900200592914 
-171.90492543621846, 6.062358794630375, 21.852755963944094, -32.14531077308993, 56.54148444229609, 62.73416834169827 
-172.78938911289686, 5.758002536924075, 21.852905907662915, -32.08188965022819, 56.998902210349264, 62.72937294727374 
-173.67488094724922, 5.457960834321352, 21.853046279530094, -32.00362838947512, 57.45571980948547, 62.72461829204402 
-174.56143329494623, 5.162310131246858, 21.853177349067774, -31.909977007023006, 57.91179933997358, 62.719906842788625 
-175.44907624430067, 4.871126248050593, 21.853299391008644, -31.800359005605003, 58.366997203683276, 62.71524106169053 
-176.33783760489297, 4.584484355016995, 21.853412684826164, -31.674170235609914, 58.8211637275795, 62.710623404335955 
-177.22774289723014, 4.302458945077774, 21.853517514260627, -31.53077775321818, 59.27414276305491, 62.70605631770447 
-178.11881534354703, 4.025123805263375, 21.85361416684188, -31.369518686488966, 59.72577125993266, 62.70154223815039 
-179.01107585985991, 3.752551986931482, 21.853702933409203, -31.18969912282259, 60.175878814021175, 62.697083589378444 
-179.90454304938464, 3.4848157748143103, 21.85378410762897, -30.990593034140108, 60.62428718718503, 62.692682780416 
179.2007668025678, 3.2219866549299514, 21.853857985510807, -30.771441259520596, 61.070809799017624, 62.6883422035832 
178.30483973210323, 2.9641352814063944, 21.853924864922806, -30.531450568977206, 61.51525118937378, 62.68406423246408 
177.40766409855146, 2.7113314422707964, 21.853985045106466, -30.269792836601543, 61.95740645125066, 62.67985121988069 
176.50923058445275, 2.463644024259691, 21.854038826191964, -29.98560435652627, 62.39706063381147, 62.67570549587235 
175.60953219361255, 2.2211409767098282, 21.854086508714435, -29.677985341117125, 62.83398811573749, 62.67162936568233 
174.70856424711138, 1.9838892745925734, 21.854128393131827, -29.345999647564895, 63.26795194959207, 62.66762510775444 
173.8063243771618, 1.7519548807586793, 21.854164779345076, -28.988674786661146, 63.698703178500594, 62.66369497174173 
172.90281251870425, 1.5254027074633745, 21.85419596622108, -28.605002276041347, 64.12598012721857, 62.659841176529454 
171.99803089863963, 1.3042965772454693, 21.854222251119232, -28.193938409579822, 64.54950767059663, 62.656065908274954 
171.0919840225975, 1.0886991832373663, 21.85424392942203, -27.754405524895443, 64.96899648358686, 62.65237131846646 
170.18467865914542, 0.8786720489860392, 21.85426129407049, -27.285293861999396, 65.38414227829361, 62.64875952200308 
169.27612382134902, 0.6742754878682328, 21.854274635104826, -26.785464117843652, 65.79462503518718, 62.64523259529878 
168.36633074559833, 0.4755685621862055, 21.854284239211168, -26.253750813670532, 66.20010823749753, 62.64179257441186 
167.45531286762244, 0.2826090420327558, 21.85429038927475, -25.688966604266486, 66.60023812001525, 62.63844145320274 
166.54308579562087, 0.0954533640172985, 21.8542933639403, -25.08990766998348, 66.99464294607444, 62.635181181522306 
165.62966728044867, -0.08584341005329482, 21.85429343718006, -24.455360343017393, 67.38293232938952, 62.632013663432744 
164.71507718279895, -0.26122763444296887, 21.85429087787022, -23.784109128022102, 67.76469662067304, 62.62894075546296 
163.79933743733696, -0.43064712060597127, 21.854285949376035, -23.07494628252303, 68.13950638256082, 62.62596426490155 
162.88247201374725, -0.5940511780581098, 21.854278909146426, -22.326683123329143, 68.5069119802782, 62.62308594812824 
161.96450687466623, -0.7513906548990645, 21.854270008318505, -21.5381632194709, 68.8664433196296, 62.62030750898721 
161.0454699304826, -0.9026179778840037, 21.85425949133249, -20.708277618054627, 69.21760976817524, 62.61763059720306 
160.1253909909976, -1.0476871919421276, 21.85424759555761, -19.83598222448262, 69.55990029971402, 62.61505680684245 
159.20430171394966, -1.1865539990396083, 21.85423455092939, -18.920317420207933, 69.89278390620308, 62.61258767482281 
158.28223555041734, -1.3191757962843116, 21.854220579599, -17.960429946970486, 70.21571032472247, 62.61022467947036 
157.35922768712737, -1.445511713170322, 21.8542058955948, -16.95559701384124, 70.52811112967545, 62.60796923912888 
156.43531498570545, -1.565522647860965, 21.854190704496876, -15.905252490377976, 70.8294012416598, 62.6058227108216 
155.5105359189197, -1.6791713024104988, 21.85417520312476, -14.809014934612192, 71.118980903842, 62.60378638896736 
154.584930503978, -1.7864222168259982, 21.85415957923885, -13.666717068630195, 71.3962381736502, 62.60186150415312 
153.65854023295316, -1.8872418018733954, 21.854144011255894, -12.478436159282072, 71.66055197158333, 62.60004922196444 
152.73140800042026, -1.9815983705336686, 21.854128667978927, -11.244524591647835, 71.91129571935049, 62.5983506418749 
151.80357802840376, -2.0694621680184535, 21.85411370834202, -9.965639745941326, 72.1478415859325, 62.59676679619692 
150.875095788742, -2.1508054002572705, 21.854099281170175, -8.6427721155537, 72.36956534219425, 62.595298649094296 
149.9460079229887, -2.225602260772516, 21.85408552495468, -7.277270449367686, 72.57585180234248, 62.593947095658535 
149.01636215998155, -2.293828955862126, 21.854072567644188, -5.870862582733794, 72.76610080414996, 62.59271296104991 
148.0862072312176, -2.3554637280144686, 21.85406052645192, -4.425670557942857, 72.93973365025099, 62.5915969997044 
147.15559278418678, -2.410486877484651, 21.854049507679115, -2.944218646185424, 73.09619990125996, 62.59059989460749 
146.22456929382187, -2.4588807819665774, 21.85403960655495, -1.4294329861455313, 73.23498437981297, 62.589722256636165 
145.29318797223354, -2.5006299143004522, 21.854030907093325, 0.11536823832469346, 73.35561421518562, 62.58896462396946 
144.36150067690588, -2.5357208581612807, 21.85402348196646, 1.6864948436029739, 73.4576657335221, 62.58832746156866 
143.42955981753622, -2.5641423216796504, 21.854017392395722, 3.2799152602636887, 73.54077098163613, 62.58781116072816 
142.49741826170734, -2.585885148952585, 21.854012688059512, 4.891297562452993, 73.60462366531311, 62.5874160386967 
141.5651292395886, -2.600942329408452, 21.854009407018737, 6.516060210519171, 73.64898428799505, 62.587142338370434 
140.63274624786362, -2.609309004996609, 21.854007575659576, 8.149431247474608, 73.67368429371584, 62.586990228057736 
139.70032295308894, -2.6109824751792488, 21.854007208653854, 9.786514172703798, 73.67862904907568, 62.586959801316134 
138.76791309468888, -2.605962199709786, 21.85400830893707, 11.422358288277149, 73.6637995415253, 62.58705107686167 
137.83557038779415, -2.5942497991889386, 21.854010867703884, 13.052031017364833, 73.6292527226598, 62.587263998550746 
136.90334842613262, -2.57584905339685, 21.85401486442145, 14.670689561538483, 73.5751204819879, 62.58759843543456 
135.9713005851801, -2.5507658974064555, 21.85402026686018, 16.273649308387693, 73.50160729450411, 62.588054181885965 
135.03947992577812, -2.519008415490335, 21.854027031142166, 17.856446618069945, 73.40898663999168, 62.58863095779855 
134.10793909842306, -2.4805868328401623, 21.854035101807117, 19.414893984134267, 73.2975963393351, 62.589328408858 
133.17673024842807, -2.4355135051248, 21.85404441189565, 20.945126042477142, 73.16783299007548, 62.59014610688467 
132.24590492215523, -2.3838029059195405, 21.854054883049994, 22.443635445740778, 73.02014570798644, 62.5910835502478 
131.3155139745098, -2.3254716120457717, 21.854066425631732, 23.907298179365764, 72.85502939285298, 62.592140164350035 
130.38560747788313, -2.2605382868665735, 21.85407893885671, 25.333388424014547, 72.67301773540235, 62.59331530218215 
129.45623463272358, -2.189023661589699, 21.854092310946655, 26.719583529943915, 72.47467616999705, 62.59460824494691 
128.52744367990783, -2.1109505146355514, 21.854106419297533, 28.06396003654376, 72.26059495652056, 62.5960182027512 
127.599281815076, -2.0263436491330196, 21.85412113066425, 29.364981931736192, 72.03138254751333, 62.59754431536589 
126.67179510508538, -1.9352298686115743, 21.854136301361578, 30.62148250008111, 71.78765936575535, 62.599185653051826 
125.74502840672875, -1.837637950962696, 21.85415177748092, 31.832641163681142, 71.53005208562763, 62.60094121745142 
124.81902528785147, -1.7335986207485212, 21.854167395122744, 32.997956691412185, 71.25918848080336, 62.602809942544404 
123.89382795099345, -1.6231445199396721, 21.85418298064433, 34.117218058378945, 70.97569287269422, 62.604790695666146 
122.96947715966817, -1.506310177168201, 21.854198350922424, 35.19047409850773, 70.68018218965487, 62.60688227858789 
122.04601216738293, -1.3831319755849156, 21.854213313630627, 36.21800292740637, 70.37326262678336, 62.609083428656824 
121.12347064948986, -1.2536481194135283, 21.854227667530928, 37.20028193606238, 70.05552688038551, 62.61139281999497 
120.20188863794812, -1.1178985992967012, 21.854241202779242, 38.13795898136378, 69.72755191961942, 62.613809064754896 
119.28130045906391, -0.9759251565312923, 21.854253701244282, 39.03182523610772, 69.38989725010155, 62.61633071443093 
118.36173867426461, -0.827771246291988, 21.854264936839648, 39.882790015162826, 69.04310361981254, 62.61895626122421 
117.44323402395, -0.6734819999439887, 21.854274675868336, 40.69185776905306, 68.68769211590315, 62.62168413945927 
116.52581537445374, -0.5131041865463465, 21.85428267737958, 41.46010733249955, 68.32416360139052, 62.62451272705109 
115.60950966813455, -0.3466861736484347, 21.85428869353726, 42.18867343284416, 67.95299844270693, 62.627440347020084 
114.6943418766068, -0.17427788748202033, 21.854292469999553, 42.878730400144164, 67.57465648214435, 62.630465269053595 
113.78033495710862, 0.004069227348463659, 21.854293746309295, 43.5314779747983, 67.18957721302314, 62.633585711111444 
112.86750981199455, 0.18830224857533667, 21.854292256294496, 44.148129077278696, 66.79818011957796, 62.63679984107383 
111.9558852513305, 0.37836681727557664, 21.854287728478525, 44.729899385311306, 66.40086514784595, 62.640105778429465 
111.04547795855693, 0.5742071790770715, 21.854279886499402, 45.277998554219266, 65.99801327807366, 62.643501596001535 
110.13630245917959, 0.7757662254644104, 21.854268449537667, 45.79362291391335, 65.58998717319778, 62.646985321709906 
109.22837109243473, 0.9829855350873454, 21.854253132752216, 46.27794947927541, 65.1771318817145, 62.65055494036679 
108.32169398587097, 1.1958054149767936, 21.854233647723618, 46.732131117828686, 64.75977557668207, 62.65420839550393 
107.4162790327788, 1.4141649415757738, 21.854209702904196, 47.1572927283266, 64.33823031567796, 62.65794359122937 
106.51213187239418, 1.6380020014948922, 21.854181004074437, 47.55452829518265, 63.912792809252856, 62.66175839411085 
105.60925587279397, 1.8672533319048128, 21.854147254805014, 47.92489869571972, 63.48374518779987, 62.66565063508426 
104.70765211639659, 2.101854560480977, 21.85410815692382, 48.26943014944211, 63.05135575880851, 62.669618111384345 
103.80731938797437, 2.341740244818902, 21.854063410987543, 48.58911321050484, 62.61587974822637, 62.673658588495876 
102.90825416508055, 2.586843911241474, 21.854012716756905, 48.8849022159774, 62.17756002113464, 62.67776980212232 
102.01045061078892, 2.8370980929229623, 21.85395577367523, 49.15771511318617, 61.7366277781875, 62.68194946017043 
101.1139005686407, 3.0924343672580425, 21.853892281349488, 49.4084335992639, 61.2933032252973, 62.6861952447478 
100.21859355969073, 3.3527833924072485, 21.853821940033292, 49.63790351498427, 60.84779621489772, 62.6905048141716 
99.32451678154204, 3.6180749429541232, 21.853744451111222, 49.84693544301401, 60.4003068578075, 62.69487580498578 
98.431655109257, 3.8882379446126762, 21.853659517583797, 50.03630546789516, 59.95102610527468, 62.699305833984724 
97.53999109803087, 4.1632005079275585, 21.853566844552443, 50.206756061423306, 59.5001363012231, 62.703792500241065 
96.64950498751463, 4.442889960912603, 21.85346613970393, 50.358997062670234, 59.04781170506992, 62.70833338713505 
95.76017470767202, 4.727232880577482, 21.853357113793546, 50.493706726776026, 58.594218985749016, 62.712926064383815 
94.87197588605795, 5.0161551232951656, 21.853239481126366, 50.61153282087107, 58.13951768777525, 62.71756809006774 
93.9848818564049, 5.309581853967009, 21.85311296003604, 50.71309374915125, 57.683860670330205, 62.72225701265208 
93.09886366840652, 5.607437573945115, 21.852977273360512, 50.79897969227913, 57.227394520451014, 62.72699037300152 
92.21389009858883, 5.9096461476755895, 21.852832148913894, 50.86975374898411, 56.77025994146891, 62.73176570638558 
91.32992766216168, 6.216130828029252, 21.85267731995409, 50.9259530700361, 56.31259211788, 62.736580544472645 
90.44694062574644, 6.526814280289612, 21.852512525645345, 50.96808997672437, 55.854521057844565, 62.7414324173107 
89.56489102087828, 6.841618604771401, 21.852337511515287, 50.99665305762745, 55.39617191450542, 62.74631885529264 
88.68373865818539, 7.160465358045397, 21.85215202990572, 51.01210823885475, 54.93766528729854, 62.75123739110393 
87.80344114215045, 7.483275572748866, 21.851955840416736, 51.01489982410996, 54.47911750439855, 62.75618556165122 
86.92395388636515, 7.809969775963159, 21.85174871034338, 51.005451501902556, 54.02064088740624, 62.76116090996917 
86.04523012919101, 8.140468006143252, 21.851530415104495, 50.984167318044776, 53.562343999341664, 62.766160987104456 
85.16722094974646, 8.474689828586126, 21.85130073866296, 50.95143261224098, 53.104331876961346, 62.77118335397432 
84.289875284143, 8.812554349427746, 21.851059473937003, 50.90761491812622, 52.64670624836882, 62.77622558319839 
83.41313994190021, 9.153980228160526, 21.850806423201853, 50.853064826557805, 52.189565736839086, 62.781285260901946 
82.5369596224734, 9.498885688665382, 21.850541398481354, 50.788116812325484, 51.733006051727465, 62.786359988488705 
81.66127693183377, 9.847188528754957, 21.850264221928864, 50.71309002473421, 51.27712016728404, 62.79144738438157 
80.78603239904696, 10.198806128225993, 21.84997472619709, 50.62828904274096, 50.82199849014702, 62.79654508572996 
79.91116449280102, 10.55365545542146, 21.8496727547963, 50.53400459550337, 50.367729016241135, 62.801650750081635 
79.03660963784216, 10.911653072304148, 21.84935816244039, 50.43051424933129, 49.91439747776247, 62.80676205701832 
78.16230223128122, 11.272715138045768, 21.849030815380456, 50.318083062130775, 49.46208748088719, 62.81187670975276 
77.28817465874222, 11.636757411136616, 21.848690591725312, 50.196964206498365, 49.01088063480126, 62.81699243668665 
76.4141573103293, 12.00369525002301, 21.848337381748603, 50.0673995626679, 48.56085667260779, 62.82210699292731 
75.54017859639607, 12.373443612280507, 21.847971088182042, 49.92962028253744, 48.11209356463291, 62.82721816176279 
74.66616496310834, 12.74591705233273, 21.84759162649445, 49.78384732601158, 47.66466762461472, 62.83232375609297 
73.79204090779734, 13.121029717726913, 21.84719892515612, 49.63029197089101, 47.218653609227616, 62.837421619816794 
72.91772899410965, 13.498695343978131, 21.846792925888213, 49.469156297526, 46.774124811363095, 62.8425096291733 
72.04314986696525, 13.878827247995973, 21.84637358389685, 49.300633649428065, 46.33115314755886, 62.847585694036354 
71.1682222673451, 14.261338320108031, 21.845940868091485, 49.12490907100488, 45.889809239941115, 62.8526477591616 
70.29286304693528, 14.646141014696227, 21.845494761287394, 48.942159723549715, 45.45016249301909, 62.85769380538462 
