# MEX_intpoint_lon [deg], MEX_intpoint_lat [deg], MEX_intpoint_angle [deg], TGO_intpoint_lon [deg], TGO_intpoint_lat [deg], TGO_intpoint_angle [deg] 
-138.4439149124727, 19.37816669188833, 21.191092575257194, -27.73210147721186, 47.829769779800316, 62.7560784412867 
-139.35336667032558, 19.00763124589656, 21.191625627332275, -28.125782655159608, 48.208451331497, 62.75178450788126 
-140.26121056998178, 18.638058692883725, 21.19214865580314, -28.516425281577867, 48.58988129332268, 62.74746685192312 
-141.16753746347567, 18.269539685914314, 21.1926615134158, -28.903972880904288, 48.97402133115344, 62.74312682205447 
-142.07243694591966, 17.902164242915877, 21.193164065057424, -29.288366483891274, 49.36083299590363, 62.73876579656113 
-142.9759973245957, 17.53602176297407, 21.19365618777201, -29.669544459589613, 49.75027771919391, 62.73438518290497 
-143.87830558945555, 17.17120104193473, 21.194137770761227, -30.04744233637215, 50.14231680822419, 62.72998641722045 
-144.77944738490527, 16.807790287273054, 21.194608715370773, -30.421992611119567, 50.536911439806, 62.7255709637755 
-145.67950698276013, 16.445877132191793, 21.19506893506208, -30.79312454560891, 50.934022653505195, 62.721140314396706 
-146.57856725626095, 16.085548648912958, 21.195518355369504, -31.16076394905486, 51.33361134383991, 62.71669598785933 
-147.4767096550532, 15.726891361129196, 21.195956913843226, -31.524832945655135, 51.73563825147442, 62.712239529242254 
-148.37401418103647, 15.369991255583331, 21.19638455997769, -31.88524972588054, 52.140063953342455, 62.70777250924843 
-149.270559365, 15.014933792746193, 21.196801255126022, -32.24192828012922, 52.54684885162753, 62.70329652349121 
-150.1664222439677, 14.66180391656462, 21.197206972400352, -32.59477811322928, 52.95595316152018, 62.69881319174658 
-151.06167833918187, 14.310686063253572, 21.197601696558287, -32.94370393812433, 53.36733689766317, 62.694324157172446 
-151.95640163466416, 13.961664169107557, 21.197985423875704, -33.28860534691067, 53.78095985918739, 62.68983108549495 
-152.85066455629743, 13.614821677308534, 21.198358162006052, -33.62937645720962, 54.19678161322956, 62.68533566416251 
-153.74453795137964, 13.270241543708758, 21.198719929826368, -33.96590553165309, 54.61476147681249, 62.68083960146841 
-154.63809106860813, 12.928006241568932, 21.199070757270245, -34.29807456803135, 55.0348584969545, 62.67634462564218 
-155.53139153845822, 12.588197765233158, 21.199410685147992, -34.62575885739597, 55.45703142886107, 62.6718524839106 
-156.42450535392675, 12.250897632724152, 21.199739764954217, -34.94882650712558, 55.881238712034595, 62.66736494152933 
-157.31749685161853, 11.916186887243303, 21.20005805866313, -35.26713792564253, 56.3074384441205, 62.66288378078532 
-158.21042869315744, 11.584146097562057, 21.200365638511883, -35.5805452651107, 56.73558835228695, 62.65841079997135 
-159.1033618469127, 11.254855357292323, 21.200662586772165, -35.888891818043945, 57.16564576191252, 62.65394781233311 
-159.99635557003432, 10.928394283025403, 21.200948995510426, -36.19201136330409, 57.597567562329715, 62.64949664498992 
-160.8894673907986, 10.604842011330511, 21.20122496633711, -36.489727456461694, 58.031310169343236, 62.645059137829875 
-161.78275309127025, 10.284277194605291, 21.201490610145065, -36.78185265892291, 58.46682948420837, 62.64063714238038 
-162.67626669029184, 9.966777995772937, 21.20174604683771, -37.068187699583994, 58.90408084871686, 62.636232520655 
-163.57006042681843, 9.652422081821568, 21.201991405047146, -37.34852056205081, 59.3430189959958, 62.63184714397759 
-164.46418474361818, 9.341286616183941, 21.202226821842686, -37.62262548964165, 59.78359799657537, 62.62748289178498 
-165.35868827136653, 9.033448249956693, 21.20245244243016, -37.89026189946619, 60.22577119922737, 62.62314165040874 
-166.25361781316496, 8.72898311196084, 21.202668419842432, -38.15117319582314, 60.66949116601258, 62.618825311837846 
-167.14901832952071, 8.427966797646555, 21.202874914621496, -38.40508547196888, 61.11470960090419, 62.61453577246273 
-168.04493292382753, 8.130474356847685, 21.203072094492587, -38.651706087956185, 61.561377271271866, 62.6102749318021 
-168.9414028283926, 7.836580280393284, 21.20326013403078, -38.89072211070256, 62.00944392141798, 62.606044691213924 
-169.83846739105752, 7.546358485585445, 21.2034392143205, -39.12179860069378, 62.45885817724938, 62.60184695259139 
-170.73616406246677, 7.2598823005551285, 21.203609522608335, -39.34457672772691, 62.90956744104501, 62.59768361704542 
-171.63452838403805, 6.9772244475097, 21.203771251949703, -39.55867169581018, 63.3615177751368, 62.59355658357474 
-172.53359397669527, 6.6984570248882624, 21.203924600849785, -39.76367045472135, 63.814653773157985, 62.5894677477251 
-173.43339253042512, 6.423651488443025, 21.204069772899256, -39.95912917272869, 64.26891841732288, 62.585419000238446 
-174.3339537947231, 6.152878631267722, 21.20420697640513, -40.14457044154049, 64.72425291998262, 62.581412225694066 
-175.23530556999592, 5.8862085627960345, 21.204336424017523, -40.31948018060007, 65.18059654744732, 62.577449301142416 
-176.13747369999035, 5.623710686795915, 21.204458332352427, -40.48330420330099, 65.63788642376858, 62.5735320947333 
-177.04048206532, 5.365453678387963, 21.204572921611337, -40.63544440246855, 66.09605731183166, 62.569662464339956 
-177.94435257816286, 5.111505460118633, 21.20468041519803, -40.77525450642571, 66.55504136870476, 62.56584225617996 
-178.8491051782049, 4.861933177121705, 21.20478103933307, -40.90203535000892, 67.01476787172169, 62.56207330343492 
-179.75475782990404, 4.616803171404018, 21.20487502266655, -41.015029596868935, 67.47516291122322, 62.55835742486983 
179.33867347884905, 4.376180955294153, 21.204962595889548, -41.113415840115096, 67.93614904523454, 62.55469642345416 
178.43117473659726, 4.1401311840952655, 21.205043991344816, -41.196301997636276, 68.39764491059438, 62.55109208498561 
177.52273390663512, 3.9087176279861007, 21.20511944263729, -41.262717906032066, 68.85956478415203, 62.54754617671801 
176.6133409237029, 3.6820031432165914, 21.20518918424477, -41.31160700275173, 69.32181808658763, 62.54406044599539 
175.70298768898303, 3.4600496426473226, 21.205253451129447, -41.341816969474564, 69.7843088201523, 62.54063661889294 
174.79166806332566, 3.242918065684405, 21.20531247835074, -41.352089190644996, 70.24693493013453, 62.537276398866744 
173.8793778586331, 3.030668347664066, 21.205366500679816, -41.34104685904522, 70.70958757808573, 62.53398146541377 
172.96611482733368, 2.8233593887434774, 21.205415752216542, -41.3071815349646, 71.17215031272892, 62.53075347274357 
172.05187864988002, 2.6210490223569063, 21.20546046600921, -41.24883793652902, 71.63449812195805, 62.527594048462795 
171.1366709202084, 2.4237939832984576, 21.20550087367752, -41.16419670571631, 72.09649634633303, 62.524504792274584 
170.22049512910004, 2.231649875494747, 21.205537205039395, -41.05125485721711, 72.55799943088677, 62.52148727469381 
169.3033566453895, 2.0446711395331687, 21.20556968774214, -40.90780357545361, 73.01884948776879, 62.51854303577982 
168.38526269496884, 1.8629110200131056, 21.20559854689835, -40.73140297886155, 73.47887463711595, 62.5156735838881 
167.4662223375422, 1.6864215327892842, 21.20562400472699, -40.51935342054702, 73.93788708740357, 62.51288039444212 
166.5462464410893, 1.5152534321781759, 21.20564628020037, -40.26866284196021, 74.39568090919741, 62.51016490872707 
165.62534765400332, 1.3494561781996985, 21.205665588697222, -39.976009643771604, 74.8520294474903, 62.50752853270649 
164.70354037487385, 1.1890779039277615, 21.205682141662386, -39.63770049000333, 75.30668230742876, 62.5049726358636 
163.78084071989156, 1.0341653830243718, 21.205696146273745, -39.24962242476809, 75.7593618359771, 62.502498550068076 
162.85726648785914, 0.884763997532686, 21.205707805116518, -38.80718866703871, 76.20975900769915, 62.500107568470355 
161.93283712279842, 0.7409177060051939, 21.205717315865698, -38.30527747538311, 76.65752860619405, 62.497800944423894 
161.00757367415238, 0.6026690120435336, 21.20572487097679, -37.73816356859905, 77.1022835737678, 62.49557989043748 
160.08149875458676, 0.4700589333266899, 21.20573065738528, -37.09944179044841, 77.5435883808809, 62.49344557715834 
159.15463649540473, 0.3431269712041119, 21.2057348562155, -36.38194307784221, 77.98095124448051, 62.49139913238708 
158.22701249959547, 0.22191108093000825, 21.20573764249884, -35.5776434206967, 78.41381500199527, 62.48944164012641 
157.2986537925452, 0.10644764261451606, 21.2057391849021, -34.677567516313204, 78.84154642835692, 62.487574139663685 
156.36958877044813, -0.003228567033545767, 21.205739645466004, -33.67169040241902, 79.26342377183944, 62.48579762468962 
155.43984714646203, -0.10708440209873946, 21.20573917935452, -32.548842749709436, 79.67862228898788, 62.48411304245285 
154.50945989466123, -0.20508837391370202, 21.20573793461499, -31.296629036167218, 80.08619759263462, 62.482521292952676 
153.57845919184933, -0.2972106765060684, 21.205736051949728, -29.90137292279349, 80.48506671041439, 62.48102322817007 
152.6468783572997, -0.38342321096907933, 21.20573366449915, -28.34811126797174, 80.87398691482679, 62.47961965133826 
151.7147517905017, -0.4636996086897532, 21.205730897636748, -26.62066777908168, 81.25153267333201, 62.478311316253475 
150.78211490699726, -0.5380152533709298, 21.20572786877635, -24.70184946937254, 81.61607153665251, 62.47709892662731 
149.84900407239985, -0.6063473017862759, 21.205724687191676, -22.573823337958135, 81.9657405065738, 62.47598313548079 
148.9154565346957, -0.6686747032104771, 21.20572145384868, -20.218745050463614, 82.29842547341532, 62.47496454458118 
147.98151035493348, -0.7249782174700512, 21.20571826125059, -17.619721324351637, 82.61174773134674, 62.47404370392244 
147.04720433641597, -0.7752404315638068, 21.205715193296268, -14.762184749186938, 82.90306332069599, 62.47322111124953 
146.11257795251154, -0.8194457748056505, 21.205712325151644, -11.63573062924737, 83.16948277447482, 62.47249721162753 
145.17767127321187, -0.8575805324465405, 21.20570972313468, -8.236393321858408, 83.40792020607623, 62.47187239705585 
144.242524890565, -0.8896328577363309, 21.20570744461393, -4.569210309366256, 83.61518059100135, 62.47134700612817 
143.30717984311843, -0.915592782390854, 21.205705537920835, -0.6507380926384921, 83.78809124234037, 62.470921323738466 
142.37167753951212, -0.9354522254337799, 21.205704042275823, 3.4890169099137145, 83.92367663259641, 62.470595580833375 
141.4360596813629, -0.9492050003876205, 21.205702987728408, 7.805919434191004, 84.01936470407463, 62.470369954211506 
140.50036818558684, -0.9568468207929284, 21.205702395111246, 12.24288477226858, 84.07319970307132, 62.47024456636964 
139.56464510630704, -0.958375304039566, 21.20570227600838, 16.733185095687386, 84.08402613027246, 62.470219485396036 
138.62893255649692, -0.9537899734988146, 21.2057026327375, 21.205577696037135, 84.05160659938915, 62.47029472491138 
137.69327262951, -0.9430922589501124, 21.20570345834641, 25.590351833843208, 83.97664690430902, 62.47047024405674 
136.75770732064743, -0.9262854953011613, 21.205704736623673, 29.825059323877937, 83.8607223458809, 62.470745947529196 
135.82227844891477, -0.9033749196051506, 21.205706442123333, 33.85881020208949, 83.70612253569118, 62.471121685664805 
134.8870275791185, -0.8743676663837984, 21.205708540203815, 37.65451403729853, 83.51564819817891, 62.471597254568785 
133.9519959444508, -0.8392727612699711, 21.205710987080813, 41.1890686345814, 83.292397691533, 62.47217239629274 
133.0172243697105, -0.7981011129882593, 21.205713729894235, 44.45196966022533, 83.03957414568141, 62.47284679905905 
132.08275319530347, -0.7508655036970927, 21.205716706788987, 47.443008996942304, 82.76033160642982, 62.473620097531516 
131.14862220216338, -0.6975805777201247, 21.20571984700959, 50.16967983012563, 82.45766608260358, 62.474491873132514 
130.21487053773075, -0.6382628286997631, 21.205723071008435, 52.64472702835939, 82.1343483711634, 62.47546165440597 
129.2815366431214, -0.5729305852096108, 21.205726290567576, 54.88408109742905, 81.79289080019397, 62.476528917425746 
128.34865818161305, -0.5016039948671679, 21.205729408933866, 56.90525525066033, 81.43553873686702, 62.477693086249026 
127.41627196857108, -0.42430500699204393, 21.20573232096732, 58.726185627080696, 81.06427849410505, 62.47895353341397 
126.48441390293065, -0.3410573538588696, 21.2057349133024, 60.36444621952829, 80.68085495798802, 62.48030958048118 
125.55311890034362, -0.2518865305976832, 21.205737064522097, 61.836755967637885, 80.28679408876641, 62.48176049861838 
124.62242082809462, -0.15681977379794068, 21.20573864534461, 63.158700298969165, 79.88342704263336, 62.48330550922722 
123.692352441881, -0.055886038875645236, 21.205739518822195, 64.34460232631108, 79.47191389316295, 62.484943784612 
122.76294532454646, 0.05088402373415876, 21.205739540552184, 65.40749359034804, 79.05326580908954, 62.48667444868887 
121.83422982684823, 0.16345809349460777, 21.205738558899643, 66.35914758061358, 78.62836513210218, 62.48849657773532 
120.90623501033173, 0.2818022057264758, 21.205736415231573, 67.21015014239687, 78.19798316866212, 62.49040920117837 
119.97898859237807, 0.40588077854050547, 21.205732944162182, 67.96998917289794, 77.7627957290277, 62.49241130242102 
119.05251689348071, 0.535656640671147, 21.205727973809054, 68.64715205860816, 77.3233965656292, 62.49450181970584 
118.12684478680167, 0.6710910601389136, 21.20572132605972, 69.24922356935629, 76.88030891839057, 62.49667964701424 
117.20199565004702, 0.8121437736670206, 21.205712816848468, 69.7829798470492, 76.43399539165806, 62.49894363500137 
116.27799131969547, 0.9587730167772004, 21.205702256442788, 70.25447608022644, 75.98486638255726, 62.501292591964024 
115.35485204760445, 1.1109355544885957, 21.205689449739346, 70.66912672700552, 75.53328726431872, 62.503725284842055 
114.43259646001074, 1.2685867125433428, 21.20567419656883, 71.0317779517815, 75.079584506779, 62.50624044025058 
113.51124151893471, 1.4316804090821516, 21.205656292009465, 71.3467724277924, 74.62405089362827, 62.50883674554308 
112.59080248599018, 1.6001691866932441, 21.20563552670873, 71.61800693525396, 74.16694997411213, 62.51151284990317 
111.67129288859391, 1.7740042447582225, 21.205611687212716, 71.8489833267302, 73.70851986684575, 62.514267365464164 
110.75272448856165, 1.9531354720191878, 21.205584556302973, 72.04285348754331, 73.24897651559061, 62.517098868455285 
109.83510725307208, 2.1375114792918373, 21.205553913340072, 72.2024589226066, 72.78851648135458, 62.520005900372844 
108.91844932797119, 2.3270796322505567, 21.20551953461374, 72.33036557399654, 72.32731934188784, 62.52298696917516 
108.00275701338639, 2.5217860842124713, 21.205481193698834, 72.42889443004921, 71.86554975836144, 62.52604055049999 
107.08803474161117, 2.721575808848941, 21.20543866181691, 72.50014843578633, 71.40335925948462, 62.529165088903 
106.17428505721742, 2.926392632754365, 21.205391708202757, 72.54603616160645, 70.94088778531376, 62.53235899911564 
105.26150859934693, 3.136179267804024, 21.20534010047551, 72.56829263571943, 70.47826502629326, 62.53562066732136 
104.34970408612897, 3.3508773432344015, 21.20528360501373, 72.56849769759305, 70.0156115874562, 62.5389484524486 
103.43886830116655, 3.57042743738158, 21.20522198733418, 72.54809218561523, 69.55304000301862, 62.54234068747877 
102.52899608203066, 3.794769109015267, 21.20515501247352, 72.50839223257375, 69.09065562267612, 62.545795680768485 
101.6200803106979, 4.023840928208265, 21.205082445372657, 72.45060190738356, 68.62855738763064, 62.54931171738404 
100.71211190586402, 4.257580506683736, 21.20500405126309, 72.37582441051703, 68.16683851162509, 62.55288706044642 
99.80507981706405, 4.495924527584591, 21.20491959605483, 72.28507200348123, 67.70558707996253, 62.55651995248634 
98.8989710205267, 4.738808774612322, 21.204828846725356, 72.17927482905635, 67.24488657755063, 62.56020861680684 
97.99377051668982, 4.986168160484593, 21.204731571709054, 72.05928875848105, 66.78481635538908, 62.56395125885261 
97.08946132930191, 5.237936754664065, 21.204627541286715, 71.92590238397051, 66.32545204354618, 62.567746067584125 
96.18602450603466, 5.494047810312874, 21.20451652797452, 71.77984325954294, 65.86686591751726, 62.571591216855566 
95.28343912052969, 5.754433790430491, 21.20439830691197, 71.62178347979523, 65.40912722388043, 62.57548486679482 
94.3816822758046, 6.0190263931347445, 21.204272656248392, 71.45234467473824, 64.95230247033709, 62.579425165183906 
93.48072910894145, 6.287756576048836, 21.204139357527282, 71.27210248882692, 64.49645568452307, 62.583410248839144 
92.58055279698404, 6.56055457975955, 21.20399819606825, 71.08159060368997, 64.04164864537874, 62.587438244988604 
91.68112456396909, 6.837349950314587, 21.203848961345816, 70.88130435659336, 63.58794109035659, 62.59150727264626 
90.78241368901938, 7.1180715607295975, 21.203691447364697, 70.67170400019737, 63.13539090131034, 62.59561544398114 
89.88438751542826, 7.402647631477765, 21.20352545303114, 70.45321764355516, 62.684054271537406, 62.59976086568003 
88.98701146066651, 7.691005749937699, 21.203350782519614, 70.22624390942674, 62.2339858561266, 62.60394164030243 
88.09024902724563, 7.983072888777499, 21.20316724563458, 69.99115433874856, 61.785238907489216, 62.60815586762656 
87.19406181437364, 8.278775423255514, 21.202974658166745, 69.7482955694143, 61.33786539771491, 62.612401645984896 
86.29840953034298, 8.578039147420466, 21.202772842243363, 69.49799131331292, 60.891916129189966, 62.616677073587944 
85.40325000559244, 8.880789289196278, 21.202561626672153, 69.24054415277023, 60.447440834739204, 62.62098024983527 
84.50853920638974, 9.186950524338586, 21.20234084727828, 68.97623717509461, 60.004488268400124, 62.62530927661219 
83.6142312490833, 9.496446989252878, 21.20211034723408, 68.7053354617894, 59.56310628780524, 62.629662259570864 
82.72027841487737, 9.809202292665555, 21.20186997738097, 68.42808744711988, 59.12334192903345, 62.63403730939519 
81.82663116508773, 10.125139526141849, 21.20161959654323, 68.14472615908127, 58.68524147469055, 62.63843254304743 
80.93323815683921, 10.444181273446247, 21.201359071833156, 67.85547035436981, 58.24885051589196, 62.64284608499628 
80.04004625917219, 10.766249618743064, 21.201088278947122, 67.56052555769104, 57.814214008743434, 62.64727606842466 
79.14700056952778, 11.091266153636745, 21.200807102452384, 67.26008501462067, 57.381376325849025, 62.651720636416464 
78.25404443058844, 11.419151983053194, 21.20051543606396, 66.95433056624847, 56.95038130331653, 62.656177943121335 
77.3611194474537, 11.749827729965398, 21.200213182911355, 66.64343345296453, 56.52127228367863, 62.66064615489584 
76.46816550513779, 12.083213538968002, 21.199900255794844, 66.32755505397759, 56.09409215510314, 62.66512345142097 
75.57512078637923, 12.419229078707664, 21.19957657743074, 66.00684756847329, 55.668883387224874, 62.66960802679421 
74.68192178975995, 12.757793543177094, 21.199242080685526, 65.68145464371558, 55.24568806389682, 62.674098090595784 
73.78850334813562, 13.098825651882747, 21.19889670879845, 65.35151195485788, 54.824547913126686, 62.67859186892789 
72.89479864738495, 13.442243648897527, 21.198540415592237, 65.0171477407531, 54.405504334437275, 62.68308760542643 
72.00073924549241, 13.787965300811269, 21.198173165671673, 64.67848329962708, 53.98859842386457, 62.687583562243994 
71.10625509198373, 14.135907893593753, 21.197794934609735, 64.33563344810099, 53.57387099678546, 62.69207802100375 
70.21127454774057, 14.485988228385851, 21.19740570912114, 63.98870694671068, 53.1613626087478, 62.69656928372318 
69.3157244052265, 14.838122616236774, 21.197005487222768, 63.63780689476805, 52.75111357445813, 62.70105567370727 
68.41952990916346, 15.192226871805985, 21.19659427838115, 63.2830310971408, 52.34316398506688, 62.70553553641025 
