# MEX_intpoint_lon [deg], MEX_intpoint_lat [deg], MEX_intpoint_angle [deg], TGO_intpoint_lon [deg], TGO_intpoint_lat [deg], TGO_intpoint_angle [deg] 
-137.97359709181913, 19.257530479371116, 20.897424787633167, -27.21972555439331, 51.10716796836785, 62.690756330072986 
-138.89206818839244, 18.90379028078557, 20.897923569606245, -27.696370567361075, 51.46111103134321, 62.686832683427426 
-139.80895562152114, 18.550928139706734, 20.898413334326246, -28.171579757030713, 51.8177492010009, 62.68289122707232 
-140.72434331312968, 18.199032523210192, 20.89889394344698, -28.6453450039884, 52.17705040018368, 62.67893318873789 
-141.63831411725795, 17.848191285829515, 20.899365269542344, -29.117657872060715, 52.53898253646849, 62.67495981857396 
-142.5509497853936, 17.49849168201778, 20.899827196122224, -29.5885095670726, 52.90351350588127, 62.67097238873062 
-143.4623309333001, 17.150020378076434, 20.900279617634922, -30.057890893052495, 53.27061119643154, 62.66697219291139 
-144.372537009231, 16.802863463510633, 20.90072243945664, -30.525792205673145, 53.6402434914657, 62.66296054589914 
-145.28164626342965, 16.457106461771794, 20.9011555778677, -30.992203362696007, 54.01237827283936, 62.658938783054836 
-146.18973571881918, 16.11283434035103, 20.901578960015815, -31.457113671162645, 54.38698342390735, 62.65490825978945 
-147.09688114279336, 15.770131520188421, 20.901992523866344, -31.920511831051215, 54.76402683233122, 62.65087035100941 
-148.00315702002658, 15.429081884365775, 20.90239621813972, -32.38238587508603, 55.14347639270287, 62.64682645053556 
-148.90863652622642, 15.089768786051993, 20.90279000223608, -32.84272310435628, 55.525300008983464, 62.64277797049639 
-149.81339150275906, 14.752275055672044, 20.903173846147382, -33.3015100193634, 55.90946559675595, 62.63872634069547 
-150.71749243208347, 14.416683007272722, 20.903547730356898, -33.75873224607556, 56.29594108528951, 62.634673007953765 
-151.62100841393718, 14.083074444059505, 20.90391164572653, -34.21437445652329, 56.68469441941398, 62.63061943542731 
-152.52400714222094, 13.751530663081226, 20.904265593371914, -34.66842028341755, 57.07569356120126, 62.62656710190039 
-153.4265548825374, 13.42213245904017, 20.904609584525602, -35.12085222821651, 57.46890649145131, 62.622517501054844 
-154.32871645034257, 13.094960127207633, 20.904943640388456, -35.57165156200051, 57.86430121097843, 62.61847214071628 
-155.2305551896767, 12.770093465425989, 20.905267791969596, -36.02079821844431, 58.26184574169425, 62.61443254207732 
-156.13213295244418, 12.447611775180246, 20.905582079914936, -36.46827067809202, 58.66150812748173, 62.61040023889874 
-157.0335100782205, 12.127593861723517, 20.90588655432479, -36.914045843049216, 59.06325643485509, 62.60637677668889 
-157.93474537456692, 11.810118033242576, 20.90618127456056, -37.35809890110067, 59.467058753398035, 62.60236371186237 
-158.83589609784028, 11.495262099051082, 20.90646630904103, -37.80040317814441, 59.87288319597317, 62.59836261087804 
-159.73701793449047, 11.183103366799866, 20.906741735028273, -38.24092997769723, 60.28069789869268, 62.594375049357815 
-160.6381649828418, 10.873718638695152, 20.907007638403755, -38.6796484060734, 60.6904710206401, 62.59040261118624 
-161.53938973536123, 10.567184206717275, 20.9072641134347, -39.11652518166337, 61.10217074333074, 62.58644688759205 
-162.440743061419, 10.263575846834245, 20.907511262531205, -39.551524426538805, 61.51576526989626, 62.582509476212145 
-163.3422741905541, 9.962968812205947, 20.907749195994324, -39.9846074383813, 61.93122282397769, 62.5785919801393 
-164.2440306962593, 9.665437825376866, 20.907978031755537, -40.41573244046908, 62.34851164830698, 62.57469600695371 
-165.14605848030615, 9.371057069456574, 20.908197895107897, -40.84485430715403, 62.767600002956314, 62.570823167739626 
-166.0484017576336, 9.07990017828947, 20.908408918429302, -41.27192426191216, 63.18845616322915, 62.566975076088234 
-166.95110304182907, 8.792040225616672, 20.908611240898168, -41.69688954464935, 63.611048417164575, 62.56315334708688 
-167.85420313123277, 8.507549713235203, 20.908805008201927, -42.119693044477295, 64.03534506262126, 62.55935959629628 
-168.75774109570136, 8.226500558161375, 20.90899037223875, -42.540272893634445, 64.4613144039022, 62.55559543871618 
-169.66175426406963, 7.9489640788072355, 20.909167490812884, -42.9585620175978, 64.88892474787595, 62.55186248774082 
-170.566278212352, 7.6750109801809465, 20.909336527324026, -43.374487635697285, 65.3181443995423, 62.5481623541045 
-171.4713467527292, 7.404711338124255, 20.909497650451083, -43.78797070568638, 65.7489416569824, 62.544496644819375 
-172.37699192336783, 7.13813458260196, 20.909651033830837, -44.198925304716504, 66.18128480562382, 62.540866962105 
-173.28324397912306, 6.875349480060536, 20.909796855731823, -44.60725793797863, 66.61514211173981, 62.5372749023119 
-174.19013138317737, 6.616424114875549, 20.90993529872403, -45.012866764878545, 67.05048181508765, 62.53372205483975 
-175.09768079967014, 6.361425869909136, 20.910066549344588, -45.41564073096081, 67.48727212057672, 62.53021000105067 
-176.0059170873743, 6.110421406201577, 20.910190797760222, -45.81545859183324, 67.92548118883659, 62.52674031317997 
-176.9148632944785, 5.863476641822947, 20.91030823742659, -46.2121878130081, 68.36507712553394, 62.52331455324398 
-177.82454065453402, 5.620656729913165, 20.910419064745227, -46.605683326782874, 68.80602796926, 62.51993427194708 
-178.7349685836268, 5.382026035941102, 20.910523478718353, -46.99578612393382, 69.24830167777804, 62.51660100758856 
-179.64616467883525, 5.1476481142156905, 20.910621680602066, -47.38232165396209, 69.69186611238169, 62.51331628497057 
179.44185528196468, 4.9175856836842025, 20.910713873558496, -47.76509800275751, 70.13668902006837, 62.51008161430806 
178.52907733888563, 4.691900603055188, 20.910800262307124, -48.14390381062969, 70.582738013175, 62.50689849014213 
177.6154893473461, 4.470653845285937, 20.910881052775984, -48.518505886444814, 71.02998054605374, 62.50376839025772 
176.7010809738573, 4.253905471476283, 20.910956451753037, -48.888646464782916, 71.4783838882813, 62.500692774606634 
175.7858436902216, 4.04171460421321, 20.911026666538238, -49.25404004217433, 71.9279150937905, 62.4976730842374 
174.86977076608375, 3.834139400412423, 20.911091904596777, -49.61436971506351, 72.37854096518392, 62.49471074023273 
173.9528572597791, 3.631237023705495, 20.911152373213937, -49.969282925488685, 72.83022801232897, 62.491807142655716 
173.0351000074247, 3.433063616423115, 20.911208279151897, -50.31838649966646, 73.28294240413433, 62.48896366950623 
172.11649761020135, 3.2396742712269027, 20.91125982830923, -50.661240838553326, 73.73664991215436, 62.48618167568817 
171.19705041977804, 3.0511230024442524, 20.911307225383215, -50.99735308647172, 74.19131584435205, 62.48346249198906 
170.2767605218328, 2.8674627171622977, 20.911350673535583, -51.32616906197219, 74.64690496694516, 62.48080742407271 
169.35563171762783, 2.68874518613895, 20.911390374062158, -51.64706368148926, 75.10338141174319, 62.47821775148653 
168.4336695036002, 2.5150210145904, 20.911426526066734, -51.959329537304185, 75.56070856571495, 62.475694726683955 
167.5108810489344, 2.346339612915897, 20.91145932613966, -52.26216320176015, 76.01884893866054, 62.47323957406368 
166.58727517108656, 2.1827491674220556, 20.91148896804159, -52.554648712598485, 76.4777640037265, 62.47085348902633 
165.66286230923532, 2.024296611109842, 20.91151564239273, -52.83573753999577, 76.93741400400724, 62.46853763704961 
164.73765449564002, 1.871027594588582, 20.911539536368107, -53.10422413079915, 77.3977577164835, 62.46629315278339 
163.81166532489095, 1.722986457182049, 20.91156083339916, -53.358715850349746, 77.8587521618726, 62.46412113916509 
162.88490992104366, 1.5802161982922873, 20.911579712882073, -53.59759576962507, 78.32035224533398, 62.462022666557026 
161.95740490263364, 1.4427584490872818, 20.911596349893316, -53.818976235347556, 78.78251030799372, 62.459998771906065 
161.02916834557476, 1.3106534445788016, 20.911610914912597, -54.020640454703624, 79.24517556234464, 62.45805045792697 
160.10021974395104, 1.1839399961568318, 20.911623573553783, -54.19996833742426, 79.70829337487949, 62.456178692310175 
159.170579968717, 1.0626554646467956, 20.911634486304045, -54.35384143498338, 80.17180434551828, 62.45438440695494 
158.2402712243296, 0.9468357339551771, 20.911643808271517, -54.478519798540425, 80.63564311348193, 62.45266849722877 
157.3093170033401, 0.8365151853689083, 20.911651688941934, -54.569480630795525, 81.099736790094, 62.4510318212537 
156.37774203898206, 0.7317266725726589, 20.91165827194451, -54.621204235366406, 81.56400287553555, 62.44947519922092 
155.44557225579752, 0.6325014974473067, 20.91166369482732, -54.62688616730869, 82.02834645065272, 62.447999412733566 
154.51283471835083, 0.5388693867114053, 20.911668088842514, -54.578044333463765, 82.49265633291125, 62.44660520417936 
153.57955757808583, 0.45085846946612174, 20.91167157874173, -54.46397384093709, 82.95679972430095, 62.445293276133185 
152.64577001838884, 0.36849525570204644, 20.911674282581835, -54.27097676830388, 83.42061461780825, 62.44406429079066 
151.7115021979263, 0.29180461582464, 20.91167631154132, -53.98125184547342, 83.88389879485318, 62.442918869433086 
150.77678519233308, 0.22080976125248414, 20.91167776974764, -53.57125767297873, 84.34639350283861, 62.44185759192469 
149.8416509343314, 0.15553222614040912, 20.911678754115638, -53.00923883392909, 84.80775858787848, 62.44088099624246 
148.90613215236974, 0.09599185027670094, 20.911679354197325, -52.25138080387081, 85.2675334490793, 62.439989578039416 
147.9702623078727, 0.042206763200782905, 20.911679652043155, -51.235643896405804, 85.72507358446252, 62.4391837902414 
147.0340755312021, -0.00580663041514187, 20.911679722075114, -49.87152543372722, 86.17944332708105, 62.43846404267848 
146.097606556431, -0.04803366408046096, 20.911679630971587, -48.02240222685853, 86.6292261476964, 62.43783070175074 
145.16089065504042, -0.08446142145960396, 20.91167943756435, -45.473838453776075, 87.07217144941166, 62.437284090129246 
144.22396356864948, -0.11507874697145835, 20.911679192747684, -41.87458010685181, 87.5044981094606, 62.43682448649255 
143.28686144089656, -0.13987625498523745, 20.91167893939984, -36.62471186980748, 87.91943728885738, 62.43645212529889 
142.34962074859035, -0.15884633758692554, 20.91167871231683, -28.67504545231745, 88.3040398697769, 62.436167196594354 
141.41227823225356, -0.17198317089470103, 20.911678538158814, -16.289700324279554, 88.6323359542813, 62.43596984585723 
140.47487082618443, -0.1792827199054527, 20.911678435408948, 2.462275115896723, 88.85472248258336, 62.43586017387901 
139.53743558816302, -0.18074274185876144, 20.911678414344887, 26.255723538428516, 88.9046074382217, 62.43583823668169 
138.60000962893068, -0.1763627881088857, 20.91167847702295, 48.111838774719374, 88.7609660253909, 62.43590404547201 
137.66263004157238, -0.16614420449939193, 20.911678617274962, 63.513372795620846, 88.47765336483879, 62.436057566632144 
136.7253338309311, -0.150090130239483, 20.91167882071774, 73.41880757378546, 88.11673286056795, 62.4362987217473 
135.78815784318482, -0.1282054952850684, 20.911679064775292, 79.84878325514774, 87.7147492470717, 62.43662738767 
134.85113869571447, -0.10049701623205627, 20.911679318713592, 84.17622366021453, 87.28998975151417, 62.43704339662085 
133.91431270739045, -0.06697319073344668, 20.911679543688027, 87.19417303410948, 86.85174211409725, 62.43754653632602 
132.9777158294049, -0.027644290455888978, 20.911679692803272, 89.35949978909456, 86.40502338316314, 62.43813655019084 
132.04138357677246, 0.017477647404414036, 20.911679711185712, 90.9451544715398, 85.95272896448817, 62.438813137509854 
131.1053509606211, 0.06837883002281653, 20.911679536068142, 92.12142141050744, 85.49663282557563, 62.43957595371223 
130.16965242139145, 0.12504372023658794, 20.911679096886758, 92.9989900052134, 85.03787978994573, 62.440424610643326 
129.23432176305832, 0.1874550491932136, 20.911678315390176, 93.65249350102508, 84.57724262190727, 62.44135867688129 
128.29939208848484, 0.2555938303215612, 20.911677105760578, 94.13388816863288, 84.11526381379095, 62.442377678088434 
127.3648957360156, 0.32943937458743733, 20.91167537474647, 94.48036236815638, 83.65233765304188, 62.443481097397246 
126.43086421740888, 0.40896930699177714, 20.911673021807218, 94.7191856986676, 83.18875976969349, 62.44466837583037 
125.49732815720434, 0.4941595842664503, 20.911669939268936, 94.87078183474951, 82.72475817162446, 62.445938912754315 
124.5643172336161, 0.5849845137199071, 20.911666012491683, 94.95073416409238, 82.26051332032229, 62.447292066365655 
123.63186012103587, 0.6814167731819779, 20.911661120047587, 94.9711299069752, 81.79617149015309, 62.448727154210324 
122.6999844342243, 0.783427431994684, 20.911655133909825, 94.94148244284771, 81.33185388347773, 62.45024345373426 
121.76871667426273, 0.8909859729935444, 20.911647919652044, 94.86937775929889, 80.86766298988891, 62.45184020286547 
120.83808217633144, 1.0040603154218524, 20.911639336658162, 94.76093626404885, 80.40368711192085, 62.45351660062652 
119.90810505937306, 1.122616838718315, 20.91162923834201, 94.62114842705878, 79.94000364397819, 62.45527180777682 
118.97880817769385, 1.2466204071170026, 20.911617472376786, 94.45412256267055, 79.47668148662406, 62.45710494748413 
118.05021307454878, 1.3760343949970124, 20.911603880933868, 94.2632703689532, 79.01378285046145, 62.459015106024204 
117.12233993774953, 1.5108207129180236, 20.911588300930667, 94.05144767489696, 78.5513646220509, 62.46100133350792 
116.19520755732715, 1.650939834277076, 20.911570564287235, 93.82106248684649, 78.08947941090787, 62.46306264463524 
115.26883328527597, 1.796350822521004, 20.911550498191357, 93.57415884410312, 77.6281763610965, 62.46519801947472 
114.34323299739715, 1.9470113588485747, 20.91152792537161, 93.31248255982153, 77.16750178688568, 62.46740640426829 
113.41842105725422, 2.1028777703360424, 20.91150266437816, 93.03753324364824, 76.70749967539084, 62.46968671225951 
112.49441028224781, 2.263905058419673, 20.911474529870887, 92.7506058266184, 76.24821208757614, 62.472037824545616 
111.57121191180865, 2.430046927669022, 20.911443332914452, 92.45282397455505, 75.78967948082068, 62.47445859095084 
110.6488355777031, 2.6012558147851093, 20.911408881279982, 92.14516717697826, 75.33194097039524, 62.47694783092169 
109.72728927644, 2.7774829177579488, 20.911370979752743, 91.82849286312714, 74.8750345429502, 62.47950433444174 
108.80657934376096, 2.95867822511891, 20.911329430445818, 91.50355457691101, 74.41899723200159, 62.48212686296585 
107.88671043119217, 3.1447905452240166, 20.911284033118918, 91.17101700535792, 73.96386526309621, 62.48481415037246 
106.96768548462995, 3.335767535505483, 20.911234585502218, 90.83146847744445, 73.50967417461246, 62.48756490393274 
106.0495057249284, 3.5315557316299775, 20.91118088362466, 90.48543141592947, 73.05645891885162, 62.490377805296085 
105.13217063045226, 3.732100576503466, 20.91112272214633, 90.13337112251322, 72.60425394708462, 62.493251511489945 
104.21567792155524, 3.9373464490638903, 20.911059894694446, 89.77570319807613, 72.15309328145887, 62.496184655934144 
103.30002354693899, 4.147236692804803, 20.910992194202517, 89.4127998389639, 71.70301057608265, 62.499175849467356 
102.38520167184608, 4.361713643974518, 20.910919413252294, 89.04499520291938, 71.25403916914763, 62.50222368138558 
101.47120466803632, 4.580718659397307, 20.91084134441796, 88.67259000110722, 70.8062121275912, 62.50532672049092 
100.55802310549332, 4.804192143865285, 20.910757780612094, 88.2958554433501, 70.3595622855179, 62.508483516149866 
99.64564574580648, 5.032073577051219, 20.910668515433184, 87.91503664040381, 69.91412227737536, 62.51169259935985 
98.73405953717088, 5.264301539895021, 20.910573343513857, 87.53035554849662, 69.46992456669979, 62.51495248382284 
97.82324961094706, 5.500813740418441, 20.91047206086971, 87.14201352642131, 69.02700147110437, 62.518261667025236 
96.91319927971998, 5.741547038925067, 20.91036446524809, 86.7501935634091, 68.58538518406559, 62.5216186313224 
96.00389003679756, 5.986437472544459, 20.910250356476396, 86.35506222623412, 68.14510779397077, 62.52502184502725 
95.09530155708656, 6.235420279082071, 20.9101295368095, 85.95677136602374, 67.70620130081193, 62.52846976350129 
94.18741169928549, 6.4884299201383415, 20.910001811275787, 85.55545961872349, 67.26869763084886, 62.531960830247584 
93.28019650933274, 6.745400103463147, 20.909866988021314, 85.1512537277971, 66.83262864951325, 62.53549347800367 
92.37363022504944, 7.0062638045135825, 20.909724878651755, 84.74426971331098, 66.39802617278225, 62.53906612983447 
91.46768528191748, 7.270953287185768, 20.909575298571543, 84.3346139078781, 65.9649219772156, 62.54267720022303 
90.56233231993345, 7.539400123693464, 20.90941806731988, 83.92238387687877, 65.53334780881991, 62.54632509615878 
89.65754019148154, 7.811535213568414, 20.909253008903054, 83.50766923782338, 65.10333539088082, 62.55000821822163 
88.75327597016953, 8.087288801759943, 20.909079952122763, 83.09055239158043, 64.67491643088125, 62.55372496166168 
87.84950496057405, 8.36659049581312, 20.908898730899843, 82.67110917639475, 64.24812262660845, 62.55747371747232 
86.94619070884367, 8.649369282107397, 20.90870918459312, 82.24940945410135, 63.82298567153702, 62.56125287345692 
86.0432950141106, 8.935553541139344, 20.908511158312944, 81.8255176366556, 63.399537259562884, 62.56506081528734 
85.14077794066448, 9.225071061835825, 20.908304503228784, 81.39949316000862, 62.977809089152935, 62.568895927553335 
84.23859783084495, 9.517849054885207, 20.908089076870873, 80.97139091142847, 62.55783286696611, 62.572756594802335 
83.33671131861206, 9.813814165077183, 20.90786474342506, 80.54126161557393, 62.13964031099373, 62.57664120256796 
82.43507334375789, 10.112892482642895, 20.90763137402078, 80.10915218394871, 61.723263153260895, 62.58054813838696 
81.53363716672565, 10.415009553589634, 20.907388847011664, 79.67510603178106, 61.308733142124986, 62.584475792803254 
80.63235438400574, 10.720090389026051, 20.907137048248345, 79.23916336587148, 60.89608204420195, 62.58842256035847 
79.73117494408376, 11.028059473475519, 20.906875871343214, 78.80136144651955, 60.485341645948104, 62.592386840567606 
78.83004716391741, 11.338840772177562, 20.906605217926685, 78.3617348262649, 60.07654375492019, 62.596367038879826 
77.92891774592522, 11.652357737378514, 20.906324997894625, 77.92031556785452, 59.66972020073449, 62.600361567622606 
77.02773179547299, 11.968533313614829, 20.90603512964664, 77.4771334435655, 59.26490283574232, 62.60436884692897 
76.12643283884987, 12.287289941993714, 20.90573554031494, 77.03221611776796, 58.86212353543736, 62.60838730564719 
75.22496284172854, 12.608549563477913, 20.9054261659833, 76.58558931439758, 58.4614141986079, 62.612415382231546 
74.3232622281112, 12.932233621182677, 20.905106951896062, 76.13727697082115, 58.06280674724569, 62.61645152561415 
73.42126989976586, 13.258263061694924, 20.904777852656608, 75.687301379414, 57.66633312622094, 62.62049419605649 
72.51892325616359, 13.586558335426144, 20.90443883241529, 75.23568331802404, 57.27202530273235, 62.62454186598065 
71.6161582149326, 13.917039396011958, 20.904089865046412, 74.78244217037137, 56.87991526553943, 62.628593020779064 
70.71290923284936, 14.24962569877336, 20.903730934313963, 74.32759603731972, 56.49003502398321, 62.632646159602295 
69.8091093273937, 14.584236198255585, 20.90336203402601, 73.8711618398592, 56.102416606801135, 62.63669979612446 
68.90469009889895, 14.92078934486292, 20.90298316817741, 73.41315541455104, 55.71709206074036, 62.64075245928563 
67.99958175333492, 15.259203080608584, 20.902594351080733, 72.95359160210954, 55.334093448973704, 62.6448026940104 
