# MEX_intpoint_lon [deg], MEX_intpoint_lat [deg], MEX_intpoint_angle [deg], TGO_intpoint_lon [deg], TGO_intpoint_lat [deg], TGO_intpoint_angle [deg] 
-139.2293204983612, 19.570906028181405, 21.71336011418513, -27.495544298952144, 41.63974492637542, 62.88589725381253 
-140.12199887738976, 19.171706611515333, 21.713954408335905, -27.77552613977197, 42.04777265498393, 62.881236951223954 
-141.01305211033488, 18.773624286392856, 21.71453679540611, -28.05049792852726, 42.45836383173023, 62.87654159631724 
-141.9025829421828, 18.376752781172243, 21.715107112348925, -28.32035761621823, 42.87146364463048, 62.87181266406101 
-142.79069251052093, 17.98118516501641, 21.71566521054359, -28.584999072088426, 43.287016784318034, 62.86705167277987 
-143.67748032399518, 17.587013871114493, 21.716210955810485, -28.844311853406957, 43.70496741581803, 62.86226018362784 
-144.56304424185194, 17.19433071889897, 21.716744228408793, -29.098180962972236, 44.1252591480677, 62.857439800010795 
-145.44748045441818, 16.803226935223474, 21.717264923016767, -29.346486593562453, 44.54783500105146, 62.852592166957116 
-146.33088346438836, 16.413793174467735, 21.7177729486947, -29.589103858505855, 44.97263737041015, 62.847718970436766 
-147.21334606879188, 16.026119537538836, 21.718268228830695, -29.825902507488713, 45.39960798937133, 62.842821936630116 
-148.09495934153028, 15.64029558973912, 21.718750701069304, -30.056746626660747, 45.82868788783623, 62.83790283114545 
-148.97581261637964, 15.256410377473237, 21.71922031722325, -30.281494322034497, 46.25981734844449, 62.83296345818695 
-149.85599347036472, 14.874552443768152, 21.719677043168247, -30.4999973851106, 46.692935859423706, 62.828005659672826 
-150.73558770742144, 14.494809842581331, 21.720120858721263, -30.712100939590265, 47.12798206401494, 62.823031314304195 
-151.61467934227107, 14.117270151874152, 21.720551757502275, -30.917643067963827, 47.56489370624763, 62.81804233658564 
-152.49335058444137, 13.742020485428428, 21.72096974677975, -31.116454416686107, 48.00360757281925, 62.81304067579794 
-153.37168182237514, 13.369147503385681, 21.721374847300186, -31.308357778568855, 48.4440594308139, 62.80802831492351 
-154.24975160757856, 12.998737421489645, 21.721767093101782, -31.493167650935348, 48.88618396097296, 62.803007269525466 
-155.12763663876615, 12.630876019014199, 21.722146531312735, -31.670689767993665, 49.32991468620576, 62.79797958658134 
-156.00541174597024, 12.265648645359754, 21.72251322193419, -31.840720605793198, 49.77518389500349, 62.792947343271656 
-156.88314987458838, 11.903140225302609, 21.722867237608366, -32.0030468580339, 50.22192255939005, 62.78791264572522 
-157.7609220693509, 11.543435262882909, 21.723208663372052, -32.157444880900044, 50.67006024701415, 62.782877627721135 
-158.63879745819696, 11.186617843918294, 21.72353759639591, -32.30368010499078, 51.11952502695273, 62.777844449349466 
-159.51684323605656, 10.832771637131332, 21.72385414570979, -32.44150641231927, 51.57024336876065, 62.77281529563084 
-160.3951246485401, 10.481979893880538, 21.724158431914642, -32.57066547625181, 52.02214003426196, 62.76779237509669 
-161.2737049755465, 10.134325446485963, 21.724450586881225, -32.6908860621596, 52.475137961536234, 62.762777918331096 
-162.15264551480647, 9.789890705141751, 21.724730753436113, -32.801883286461035, 52.929158140508086, 62.75777417647551 
-163.03200556538306, 9.448757653409885, 21.724999085035407, -32.90335783164323, 53.384119479497805, 62.752783419697536 
-163.91184241116036, 9.11100784229058, 21.72525574542661, -32.99499511477141, 53.839938662039074, 62.74780793562548 
-164.79221130435425, 8.776722382866783, 21.725500908299047, -33.076464406927954, 54.29652999321135, 62.74285002774935 
-165.67316544908783, 8.44598193752174, 21.72573475692338, -33.14741790097275, 54.75380523467363, 62.73791201379073 
-166.55475598507834, 8.118866709730769, 21.725957483780597, -33.20748972498972, 55.21167342751951, 62.732996224042104 
-167.43703197148844, 7.795456432429965, 21.726169290181137, -33.25629489878759, 55.670040702003234, 62.72810499967761 
-168.3200403710002, 7.475830354966968, 21.72637038587439, -33.293428230864066, 56.128810073109925, 62.723240691036985 
-169.20382603417517, 7.160067228640862, 21.726560988649368, -33.31846315333251, 56.58788122086336, 62.71840565588381 
-170.08843168416914, 6.84824529084068, 21.726741323926884, -33.330950492460715, 57.04715025417877, 62.71360225764003 
-170.97389790187492, 6.540442247794102, 21.726911624343877, -33.33041717269739, 57.50650945697842, 62.70883286359869 
-171.86026311157045, 6.236735255940966, 21.727072129330303, -33.31636485238157, 57.965847015192516, 62.70409984311612 
-172.74756356715446, 5.937200901948051, 21.72722308467934, -33.288268489764846, 58.42504672317075, 62.6994055657858 
-173.63583333905635, 5.641915181384807, 21.72736474211129, -33.24557483855071, 58.8839876679274, 62.6947523995954 
-174.5251043019085, 5.350953476082446, 21.727497358831876, -33.1877008729012, 59.342543889539684, 62.690142709069384 
-175.41540612307563, 5.064390530201313, 21.7276211970854, -33.11403214281461, 59.8005840159155, 62.68557885339833 
-176.30676625213607, 4.782300425034895, 21.72773652370348, -33.02392106198011, 60.257970870043565, 62.68106318455749 
-177.19920991141444, 4.504756552581602, 21.727843609649835, -32.91668513171987, 60.714561047741306, 62.676598045416476 
-178.0927600876664, 4.231831587918578, 21.727942729561732, -32.7916051064937, 61.17020446382504, 62.672185767841775 
-178.98743752501878, 3.9635974604151256, 21.7280341612889, -32.64792310873505, 61.62474386454868, 62.66782867079431 
-179.883260719269, 3.700125323826558, 21.72811818543005, -32.4848407035944, 62.07801430409674, 62.663529058424416 
179.21975408635026, 3.441485525312524, 21.728195084868208, -32.301516947576786, 62.529842582882154, 62.65928921816535 
178.3215929038352, 3.1877475734271883, 21.728265144304952, -32.09706642918581, 62.98004664539839, 62.655111418828625 
177.42224400139798, 2.938980105132246, 21.728328649794456, -31.870557324648928, 63.428434935418885, 62.650997908702365 
176.5216979026705, 2.695250851886759, 21.728385888277856, -31.621009497736903, 63.87480570644121, 62.64695091365509 
175.61994738402075, 2.456626604871541, 21.728437147118544, -31.347392679761292, 64.31894628545191, 62.642972635247254 
174.71698746987755, 2.223173179408942, 21.728482713639064, -31.04862477420587, 64.760632288365, 62.63906524885239 
173.81281542596332, 1.994955378642335, 21.72852287466006, -30.72357034030789, 65.19962678588426, 62.63523090178996 
172.907430750335, 1.772036956542791, 21.72855791604215, -30.37103932144333, 65.6356794190904, 62.63147171147259 
172.00083516213857, 1.55448058031373, 21.728588122230992, -29.989786097584936, 66.06852546478869, 62.62778976356891 
171.09303258798468, 1.342347792267373, 21.72861377580642, -29.578508956577192, 66.49788485161967, 62.62418711018517 
170.18402914585783, 1.1356989712497965, 21.728635157036145, -29.135850096673305, 66.92346112917599, 62.620665768066964 
169.27383312647655, 0.9345932936944092, 21.72865254343448, -28.66039629282034, 67.3449403939442, 62.61722771682356 
168.36245497202734, 0.7390886943862195, 21.72866620932691, -28.150680381599503, 67.76199017785869, 62.61387489717688 
167.44990725220111, 0.5492418270219639, 21.728676425420872, -27.60518374444653, 68.17425830768903, 62.610609209237204 
166.53620463746765, 0.3651080246534727, 21.728683458383458, -27.022339995540346, 68.58137174645273, 62.607432510807904 
165.62136386953037, 0.18674126010372144, 21.728687570426448, -26.40054010905646, 68.98293543163159, 62.60434661572054 
164.705403728912, 0.014194106447185868, 21.728689018899363, -25.738139249509537, 69.37853112924495, 62.601353292203456 
163.78834499962932, -0.15248230235243124, 21.72868805589098, -25.03346559739732, 69.76771632786563, 62.598454261284886 
162.87021043092435, -0.31323831055249823, 21.72868492783989, -24.284831488493626, 70.15002320250333, 62.595651195233174 
161.9510246960278, -0.46802577939410084, 21.72867987515455, -23.490547206427856, 70.52495768494845, 62.592945716035544 
161.03081434794055, -0.6167981254204519, 21.72867313184338, -22.64893778132584, 70.89199868464055, 62.59033939391781 
160.1096077722294, -0.7595103582539816, 21.728664925155442, -21.758363148036135, 71.25059751231186, 62.58783374590666 
159.18743513684203, -0.8961191177349465, 21.728655475231974, -20.817242000589108, 71.60017756737227, 62.58543023443598 
158.26432833895808, -1.0265827103243652, 21.728644994769553, -19.824079638807202, 71.94013435894932, 62.58313026599985 
157.34032094890313, -1.1508611446747727, 21.728633688694984, -18.77750003132151, 72.26983593921553, 62.58093518985284 
156.41544815116367, -1.2689161662730155, 21.728621753852657, -17.676282209063423, 72.5886238354904, 62.57884629676023 
155.489746682552, -1.3807112910606711, 21.728609378704558, -16.519400947094802, 72.89581457374817, 62.57686481779907 
154.56325476758076, -1.486211837939202, 21.728596743043493, -15.30607148396599, 73.19070188952469, 62.57499192321209 
153.6360120511186, -1.5853849600690058, 21.728584017719726, -14.035797762576518, 73.4725597215222, 62.57322872131553 
152.70805952840854, -1.6781996748738452, 21.728571364381605, -12.708423354791158, 73.74064607701442, 62.57157625746271 
151.77943947254207, -1.7646268926649544, 21.72855893523037, -11.324183860005283, 73.99420784494143, 62.57003551306446 
150.8501953594924, -1.8446394438021667, 21.728546872789487, -9.883759159892909, 74.23248661092177, 62.56860740466748 
149.92037179082055, -1.9182121043129505, 21.728535309688873, -8.388323492271763, 74.45472549715572, 62.567292783092476 
148.99001441417786, -1.9853216198940227, 21.72852436846422, -6.839590912127138, 74.66017700878659, 62.56609243263244 
148.05916984173857, -2.0459467282244614, 21.728514161371795, -5.239853383863569, 74.84811181703475, 62.56500707031273 
147.12788556670463, -2.100068179523673, 21.728504790218814, -3.5920085505085355, 75.01782834983149, 62.564037345213634 
146.19620987803387, -2.147668755292446, 21.728496346209756, -1.8995742105212248, 75.16866299568392, 62.56318383785612 
145.26419177355004, -2.1887332851803776, 21.728488909808704, -0.16668675361807975, 75.30000066054428, 62.56244705965228 
144.33188087160158, -2.2232486619284506, 21.728482550618008, 1.60191869914358, 75.4112853563539, 62.56182745242037 
143.39932732144175, -2.251203854340998, 21.728477327273318, 3.4009479278921035, 75.50203045043209, 62.56132538796559 
142.46658171250846, -2.2725899182473475, 21.728473287355246, 5.224607458643799, 75.57182817393135, 62.560941167727094 
141.5336949827883, -2.2874000054193258, 21.72847046731764, 7.066683828395077, 75.62035798132385, 62.56067502249153 
140.6007183264523, -2.2956293704170494, 21.728468892432666, 8.920640157744518, 75.6473933755825, 62.56052711217371 
139.667703100955, -2.2972753753418624, 21.72846857675277, 10.779726640690932, 75.65280686674956, 62.56049752566449 
138.73470073379104, -2.2923374924816717, 21.728469523089505, 12.637100471901316, 75.63657281280514, 62.56058628074629 
137.80176262910416, -2.280817304840391, 21.728471723009285, 14.485949963643746, 75.59876799539859, 62.56079332407612 
136.8689400743458, -2.2627185045499494, 21.728475156846095, 16.31961725629833, 75.5395699002481, 62.56111853123637 
135.93628414717836, -2.2380468891697256, 21.728479793731108, 18.131714143765333, 75.45925279207951, 62.561561706853055 
135.00384562281855, -2.2068103558849295, 21.728485591639195, 19.916226102638106, 75.35818178567891, 62.56212258478166 
134.07167488201355, -2.1690188936218937, 21.72849249745221, 21.66760055772384, 75.23680520800234, 62.56280082836009 
133.1398218198397, -2.124684573104671, 21.728500447039075, 23.380816617834874, 75.09564561390833, 62.56359603072828 
132.20833575550986, -2.073821534883648, 21.728509365352412, 25.05143483291642, 74.93528985598194, 62.56450771521454 
131.2772653433707, -2.0164459753728874, 21.728519166541762, 26.675626814974013, 74.75637861676692, 62.56553533578764 
130.34665848526598, -1.9525761309391088, 21.72852975408306, 28.250185710330957, 74.55959579244464, 62.566678277574276 
129.41656224443543, -1.8822322600906383, 21.728541020924354, 29.77251942391883, 74.34565807592972, 62.567935857440816 
128.48702276111172, -1.8054366238205306, 21.72855284964748, 31.24062913283484, 74.11530503117518, 62.5693073246395 
127.55808516997081, -1.7222134641629876, 21.728565112645498, 32.653075980428426, 73.86928988614902, 62.5707918615171 
126.62979351958221, -1.6325889810273597, 21.728577672315705, 34.00893893915312, 73.60837120582023, 62.57238858428589 
125.70219069399741, -1.5365913073787016, 21.728590381267825, 35.307766716605954, 73.33330554373856, 62.5740965438556 
124.77531833660453, -1.43425048283798, 21.72860308254733, 36.54952631083879, 73.04484111510011, 62.57591472672537 
123.84921677636835, -1.325598425779392, 21.728615609873344, 37.734550455176986, 72.74371248775383, 62.57784205593435 
122.92392495656448, -1.2106689040055079, 21.72862778789104, 38.86348578051221, 72.43063625129734, 62.579877392069974 
121.99948036610525, -1.0894975040846826, 21.728639432438015, 39.937243105648, 72.10630759806611, 62.582019534332446 
121.07591897354541, -0.9621215994377056, 21.728650350824395, 40.956950873867, 71.77139773254923, 62.58426722165397 
120.15327516384356, -0.8285803172635368, 21.728660342126272, 41.92391240575902, 71.42655201624942, 62.58661913387156 
119.23158167794521, -0.688914504395988, 21.7286691974921, 42.839567344543944, 71.07238875174617, 62.58907389295149 
118.31086955524196, -0.5431666921850313, 21.728676700461573, 43.70545743347538, 70.70949851122768, 62.59163006426435 
117.39116807894996, -0.3913810604979415, 21.728682627296713, 44.523196583165685, 70.33844391965621, 62.5942861579085 
116.47250472444011, -0.23360340093640916, 21.728686747324527, 45.29444505437463, 69.95975980985162, 62.59704063008072 
115.55490511054218, -0.06988107936654586, 21.72868882329099, 46.0208874918406, 69.57395367515612, 62.59989188449203 
114.63839295383323, 0.09973700214104889, 21.7286886117257, 46.704214489464135, 69.18150635424492, 62.60283827382697 
113.72299002591126, 0.2752004438638925, 21.728685863316876, 47.34610733918819, 68.78287289152453, 62.60587810124478 
112.80871611364499, 0.45645738737611674, 21.7286803232961, 47.948225608573544, 68.37848352504213, 62.60900962191972 
111.89558898238042, 0.6434545547966734, 21.72867173183238, 48.512197199602475, 67.96874476167382, 62.61223104462002 
110.98362434207544, 0.8361372882420253, 21.728659824434907, 49.039610558926285, 67.55404050643632, 62.615540533322175 
110.07283581632612, 1.0344495893894778, 21.728644332364055, 49.53200873384402, 67.13473321902003, 62.61893620885933 
109.16323491423776, 1.2383341590587966, 21.728624983050153, 49.99088499587858, 66.7111650760718, 62.6224161506016 
108.25483100508819, 1.4477324367215247, 21.728601500519215, 50.41767978276126, 66.28365912240281, 62.62597839816608 
107.34763129572126, 1.662584639849556, 21.728573605825442, 50.81377873843408, 65.8525203982177, 62.629620953154934 
106.44164081060332, 1.8828298030167538, 21.728541017489583, 51.18051165829323, 65.41803703273058, 62.633341780918784 
105.53686237446784, 2.108405816669817, 21.72850345194279, 51.51915217268472, 64.98048129722599, 62.63713881234411 
104.63329659746866, 2.3392494654872746, 21.7284606239753, 51.830918025250654, 64.54011061281554, 62.64100994566177 
103.73094186275596, 2.5752964662484326, 21.72841224718942, 52.11697182395842, 64.09716850990448, 62.644953048275056 
102.82979431638594, 2.816481505136693, 21.72835803445607, 52.378422161504396, 63.65188553778323, 62.6489659586049 
101.92984785946987, 3.062738274405121, 21.72829769837451, 52.61632501835462, 63.20448012385651, 62.65304648795014 
101.0310941424652, 3.3139995083350775, 21.72823095173449, 52.8316853761075, 62.75515938286709, 62.657192422360794 
100.133522561509, 3.5701970184219327, 21.72815750798018, 53.025458981315424, 62.30411987710987, 62.66140152452193 
99.23712025669104, 3.8312617277253818, 21.728077081675476, 53.19855421057747, 61.851548329101725, 62.665671535646325 
98.34187211216242, 4.097123704324969, 21.72798938896982, 53.35183399680718, 61.397622288506035, 62.670000177373666 
97.44776075797431, 4.367712193825115, 21.72789414806418, 53.48611778427858, 60.94251075533591, 62.67438515367389 
96.55476657354122, 4.642955650856918, 21.72779107967631, 53.602183486538635, 60.4863747615995, 62.67882415275309 
95.66286769262183, 4.922781769527886, 21.72767990750493, 53.70076942670478, 60.02936791362238, 62.683314848959576 
94.77204000971265, 5.207117512773512, 21.727560358692035, 53.78257624419506, 59.57163689730202, 62.68785490468775 
93.88225718774838, 5.4958891405686225, 21.72743216428283, 53.84826875569128, 59.11332194852985, 62.69244197227832 
92.99349066700601, 5.789022236959011, 21.7272950596827, 53.8984777612325, 58.65455729096755, 62.697073695912714 
92.1057096751104, 6.086441735877655, 21.727148785110487, 53.93380178887514, 58.19547154329412, 62.701747713498776 
91.218881238041, 6.388071945712772, 21.72699308604762, 53.95480877342653, 57.73618809795468, 62.706461658547425 
90.33297019204306, 6.69383657259784, 21.72682771368249, 53.962037666434355, 57.27682547334811, 62.71121316203677 
89.44793919634763, 7.003658742397254, 21.726652425349396, 53.955999975961724, 56.8174976412886, 62.7159998542625 
88.56374874661027, 7.31746102136356, 21.726466984961572, 53.93718123574914, 56.35831433147399, 62.7208193666728 
87.68035718897914, 7.6351654354456855, 21.72627116343771, 53.906042404209636, 55.899381314588716, 62.72566933368547 
86.79772073470996, 7.956693488229719, 21.72606473912141, 53.86302119435955, 55.44080066556744, 62.73054739448555 
85.9157934752463, 8.28196617749697, 21.725847498193005, 53.80853333628775, 54.982671008444704, 62.73545119480229 
85.03452739769149, 8.610904010386008, 21.72561923507322, 53.7429737741414, 54.52508774412015, 62.74037838866248 
84.15387240059945, 8.943427017148473, 21.725379752818107, 53.66671779987565, 54.06814326227584, 62.74532664011999 
83.27377631001983, 9.279454763490023, 21.725128863504835, 53.580122126201715, 53.61192713859495, 62.75029362495839 
82.39418489573585, 9.618906361490586, 21.724866388607698, 53.4835259012858, 53.15652631834772, 62.75527703236615 
81.51504188763938, 9.961700479099969, 21.724592159363876, 53.377251667815614, 52.70202528733278, 62.76027456658226 
80.63628899219343, 10.307755348206788, 21.724306017128583, 53.26160626907241, 52.24850623108837, 62.76528394851097 
79.75786590893715, 10.65698877128083, 21.72400781371893, 53.13688170463338, 51.796049183219466, 62.77030291730416 
78.87971034699535, 11.009318126590497, 21.72369741174623, 53.003355938290206, 51.34473216362341, 62.77532923190988 
78.00175804155982, 11.364660371999069, 21.72337468493618, 52.86129366071051, 50.89463130733627, 62.780360672585765 
77.12394277031628, 11.722932047344711, 21.723039518436515, 52.71094700929485, 50.44582098466806, 62.78539504237586 
76.24619636979688, 12.084049275411218, 21.7226918091118, 52.55255624759675, 49.99837391324273, 62.79043016854981 
75.36844875164546, 12.447927761497516, 21.722331465824855, 52.38635040658134, 49.5523612625121, 62.795463904003064 
74.49062791878858, 12.814482791595767, 21.721958409704445, 52.21254788990062, 49.10785275126885, 62.80049412861671 
73.6126599815125, 13.183629229189034, 21.72157257439899, 52.03135704526412, 48.66491673864273, 62.8055187505766 
72.73446917345413, 13.555281510680867, 21.721173906315762, 51.84297670388265, 48.22362030902775, 62.810535707649485 
71.85597786751971, 13.929353639470607, 21.72076236484538, 51.647596689863065, 47.78402935135203, 62.81554296841642 
70.97710659175398, 14.305759178689183, 21.720337922571236, 51.44539830133309, 47.346208633071775, 62.82053853346175 
70.09777404518874, 14.684411242611752, 21.719900565463533, 51.236554764978756, 46.91022186924001, 62.82552043651657 
