# MEX_intpoint_lon [deg], MEX_intpoint_lat [deg], MEX_intpoint_angle [deg], TGO_intpoint_lon [deg], TGO_intpoint_lat [deg], TGO_intpoint_angle [deg] 
-138.01333705292762, 19.26780521684225, 20.92161978401569, -27.29796014078743, 50.84635963383113, 62.695852027478495 
-138.93107681200692, 18.91266230713054, 20.9221213836333, -27.767239724161694, 51.20261150599259, 62.69189375277144 
-139.8472305232206, 18.558404382973706, 20.92261388458067, -28.234939062315636, 51.561568702669405, 62.68791720300038 
-140.7618826845599, 18.205120104474553, 20.923097147777234, -28.701045497106136, 51.92319877603461, 62.68392361709965 
-141.67511671084807, 17.852897517099446, 20.92357104516136, -29.165545843334197, 52.28746926143193, 62.67991425699365 
-142.58701489933983, 17.50182406445203, 20.924035459706147, -29.62842633480371, 52.65434768082376, 62.675890407173135 
-143.49765839681217, 17.15198660050153, 20.924490285421772, -30.08967256693791, 53.023801546034655, 62.671853374243305 
-144.40712716803512, 16.8034714012248, 20.92493542734471, -30.549269435667195, 53.3957983617879, 62.66780448644408 
-145.31549996552113, 16.45636417562304, 20.92537080151362, -31.00720107227416, 53.77030562853335, 62.66374509314252 
-146.22285430045594, 16.11075007607671, 20.925796334932077, -31.463450773849132, 54.147290845063495, 62.65967656429776 
-147.12926641472154, 15.766713708003769, 20.9262119655183, -31.918000928975264, 54.52672151091505, 62.65560028989855 
-148.0348112539279, 15.42433913878895, 20.926617642041762, -32.370832938222186, 54.90856512855274, 62.651517679374244 
-148.9395624413763, 15.08370990595305, 20.927013324047124, -32.82192712898406, 55.29278920533122, 62.64743016097851 
-149.8435922528845, 14.744909024533529, 20.927398981765283, -33.27126266414894, 55.67936125523095, 62.64333918114766 
-150.74697159240813, 14.408018993649451, 20.927774596011883, -33.718817444031835, 56.06824880036285, 62.63924620383235 
-151.6497699684013, 14.073121802225254, 20.92814015807345, -34.16456800094303, 56.459419372235985, 62.635152709804366 
-152.5520554708635, 13.740298933849887, 20.928495669581192, -34.60848938569445, 56.852840512781654, 62.63106019593824 
-153.45389474902674, 13.409631370749302, 20.928841142372818, -35.05055504527097, 57.24847977512651, 62.62697017446857 
-154.35535298964263, 13.081199596852038, 20.929176598342448, -35.49073669080594, 57.64630472410564, 62.62288417222317 
-155.25649389583484, 12.75508359992905, 20.929502069278943, -35.92900415490458, 58.04628293650646, 62.61880372983322 
-156.1573796664873, 12.431362872790949, 20.92981759669279, -36.36532523724791, 58.448382001031256, 62.61473040092019 
-157.05807097614561, 12.110116413526873, 20.930123231631853, -36.79966553728698, 58.85256951796651, 62.61066575126089 
-157.95862695541254, 11.79142272477133, 20.930419034486196, -37.23198827269663, 59.25881309854355, 62.60661135793098 
-158.85910517182535, 11.475359811986495, 20.930705074782406, -37.662254082099025, 59.667080363974364, 62.60256880842745 
-159.75956161120743, 11.162005180749391, 20.930981430967392, -38.09042081038717, 60.07733894414326, 62.598539699770996 
-160.66005065949054, 10.851435833034971, 20.931248190182348, -38.516443274772655, 60.48955647593274, 62.594525637589086 
-161.5606250850116, 10.54372826248739, 20.931505448026815, -38.940273009448546, 60.903700601158974, 62.590528235180265 
-162.4613360212893, 10.238958448674085, 20.93175330831351, -39.361857986490286, 61.319738964088295, 62.58654911256045 
-163.36223295029345, 9.937201850318338, 20.93199188281397, -39.78114231031197, 61.73763920850282, 62.582589895492454 
-164.2633636862225, 9.638533397508217, 20.932221290995464, -40.19806588264397, 62.15736897427799, 62.578652214498774 
-165.16477435981017, 9.343027482881178, 20.932441659749678, -40.612564034595295, 62.5788958934303, 62.57473770385946 
-166.0665094031851, 9.050757951785826, 20.93265312311326, -41.02456712189845, 63.00218758558646, 62.57084800059524 
-166.96861153531333, 8.761798091423774, 20.932855821980763, -41.43400007889961, 63.42721165281928, 62.56698474343698 
-167.87112174805466, 8.47622061897673, 20.93304990381045, -41.84078192623514, 63.853935673786395, 62.56314957178267 
-168.7740792928704, 8.19409766872585, 20.933235522323095, -42.24482522641714, 64.28232719709916, 62.559344124642344 
-169.67752166822078, 7.915500778172114, 20.933412837194496, -42.64603548071294, 64.71235373383794, 62.55557003957269 
-170.58148460769632, 7.640500873168849, 20.933582013741805, -43.044310459728656, 65.14398274911687, 62.55182895160143 
-171.48600206892766, 7.369168252079499, 20.9337432226044, -43.439539458967275, 65.57718165258663, 62.548122492143285 
-172.3911062233232, 7.101572568975684, 20.933896639419384, -43.83160246929489, 66.0119177877458, 62.54445228790783 
-173.29682744668634, 6.83778281589284, 20.9340424444925, -44.22036925068029, 66.44815841991117, 62.540819959801134 
-174.20319431076481, 6.577867304163169, 20.934180822464583, -44.60569829572061, 66.88587072267238, 62.53722712182125 
-175.11023357578927, 6.321893644847308, 20.93431196197418, -44.987435667279705, 67.3250217626284, 62.53367537994945 
-176.0179701840573, 6.069928728288962, 20.934436055316763, -45.36541369197001, 67.76557848216801, 62.530166331037954 
-176.92642725462338, 5.822038702818646, 20.934553298100848, -45.739449488121615, 68.2075076800169, 62.52670156169504 
-177.83562607915405, 5.578288952635041, 20.934663888901724, -46.10934330319604, 68.6507759892248, 62.52328264716907 
-178.74558611901062, 5.338744074894949, 20.934768028912963, -46.474876631186184, 69.0953498522078, 62.51991115023244 
-179.65632500362085, 5.103467856044905, 20.93486592159643, -46.835810075232395, 69.54119549239141, 62.51658862006618 
179.43214146979795, 4.872523247430116, 20.934957772331007, -47.19188091427498, 69.98827888191461, 62.51331659114686 
178.51979933510108, 4.645972340218293, 20.93504378806079, -47.542800324793646, 70.43656570475329, 62.51009658213673 
177.6066364546035, 4.4238763396788, 20.935124176942853, -47.888250199230995, 70.88602131449576, 62.506930094778156 
176.69264251492825, 4.206295538859202, 20.935199147995455, -48.227879491141714, 71.33661068585073, 62.50381861279358 
175.77780902125784, 3.993289291704052, 20.935268910746746, -48.56130000292423, 71.78829835877964, 62.500763600792254 
174.86212928992757, 3.7849159856626535, 20.93533367488481, -48.88808151449348, 72.2410483739142, 62.4977665031846 
173.9455984393054, 3.5812330138347397, 20.9353936499092, -49.20774612956386, 72.69482419763102, 62.494828743105735 
173.02821337890146, 3.3822967467051366, 20.935449044784583, -49.519761689186936, 73.14958863479742, 62.49195172134895 
172.1099727966554, 3.188162503520463, 20.935500067596973, -49.82353406833344, 73.60530372675106, 62.489136815310474 
171.19087714435153, 2.998884523362791, 20.935546925212876, -50.11839812865809, 74.06193063150847, 62.48638537794665 
170.27092862111434, 2.814515935977033, 20.935589822941935, -50.40360704653087, 74.51942948247674, 62.48369873674457 
169.35013115494186, 2.635108732410578, 20.935628964203413, -50.67831966648161, 74.97775922102055, 62.48107819270741 
168.4284903822371, 2.4607137355252178, 20.93566455019701, -50.941585441707474, 75.43687739705311, 62.47852501935535 
167.50601362530261, 2.2913805704429047, 20.935696779578446, -51.192326408895994, 75.89673993028464, 62.476040461743445 
166.58270986776736, 2.1271576349881816, 20.935725848140173, -51.42931549564843, 76.35730082275968, 62.47362573549732 
165.6585897279202, 1.9680920701912752, 20.935751948497806, -51.651150263304785, 76.81851181068122, 62.47128202586791 
164.73366542992966, 1.8142297309168829, 20.935775269782443, -51.85622092933072, 77.28032194002489, 62.4690104868062 
163.80795077293448, 1.665615156684444, 20.935795997339433, -52.04267116825815, 77.74267704577065, 62.4668122400589 
162.88146109799595, 1.522291542746424, 20.935814312434054, -52.20834972526959, 78.20551910825927, 62.464688374286425 
161.9542132529084, 1.3843007114914152, 20.935830391964277, -52.35075024421926, 78.66878545155546, 62.462639944203744 
161.02622555486994, 1.2516830842392992, 20.93584440818119, -52.46693584295955, 79.13240773679563, 62.46066796974532 
160.09751775102416, 1.1244776534956318, 20.935856528417347, -52.553443761496524, 79.59631068688184, 62.458773435255054 
159.1681109768864, 1.0027219557322395, 20.935866914823464, -52.60616371110288, 80.06041045539952, 62.45695728870219 
158.23802771267813, 0.8864520447606384, 20.935875724113703, -52.62018113609029, 80.52461251900026, 62.45522044092373 
157.30729173759826, 0.7757024657642667, 20.935883107320063, -52.589573113617945, 80.98880892362405, 62.453563764895044 
156.37592808206674, 0.6705062300546467, 20.935889209555963, -52.50713951475424, 81.4528746428374, 62.45198809502839 
155.4439629779834, 0.5708947906154594, 20.935894169789595, -52.36404446871631, 81.91666269841461, 62.450494226501185 
154.51142380705176, 0.4768980184972996, 20.935898120627105, -52.14933172336006, 82.37999752812416, 62.44908291461417 
153.57833904722352, 0.38854418012418973, 20.93590118810602, -51.84925990609084, 82.84266582850763, 62.44775487418055 
152.64473821732733, 0.3058599155712734, 20.935903491499243, -51.44637617378828, 83.30440369150617, 62.44651077894642 
151.71065181995107, 0.2288702178709312, 20.935905143129673, -50.91820287558682, 83.76487818863389, 62.44535126104367 
150.77611128265394, 0.15759841340248934, 20.935906248195923, -50.235340562912796, 84.22366044768017, 62.44427691047574 
149.8411488975904, 0.09206614341813624, 20.93590690460924, -49.35867260659554, 84.68018536975056, 62.44328827463666 
148.9057977596347, 0.0322933467548843, 20.935907202841847, -48.23515774970083, 85.13368979668378, 62.44238585786418 
147.97009170309965, -0.02170175622016899, 20.935907225786956, -46.79135768393056, 85.58311489553874, 62.44157012102761 
147.03406523714938, -0.06990267838749402, 20.935907048630607, -44.923268032471334, 86.02694727198613, 62.4408414811505 
146.09775348001088, -0.11229467933485715, 20.9359067387355, -42.480061454972954, 86.46295184786769, 62.44020031106891 
145.16119209209347, -0.14886477746184099, 20.93590635553698, -39.23792522626721, 86.88770803547398, 62.439646939125545 
144.22441720813006, -0.17960176069555175, 20.935905950451325, -34.858869218494746, 87.2957820619555, 62.43918164890004 
143.28746536845796, -0.20449619578746803, 20.93590556679645, -28.83233275688636, 87.67823538272896, 62.43880467897605 
142.35037344956032, -0.22354043616539776, 20.935905239725102, -20.42340071041939, 88.0200452952199, 62.43851622274485 
141.41317859399234, -0.23672862831846275, 20.93590499617071, -8.760700164089528, 88.29646145283472, 62.438316428246424 
140.47591813981896, -0.24405671669707432, 20.935904854805848, 6.558681304395703, 88.47150108876784, 62.438205398047344 
139.53862954969276, -0.24552244711403923, 20.93590482601352, 24.196708699591646, 88.50897516160273, 62.438183189156504 
138.6013503397022, -0.24112536863722614, 20.935904911871113, 40.99177026616368, 88.39918467441981, 62.43824981297795 
137.66411800812088, -0.2308668339683243, 20.935905106147235, 54.50916911208808, 88.16844607375046, 62.438405235301694 
136.72696996419035, -0.21474999830675964, 20.93590539431131, 64.44145978138296, 87.85549503972832, 62.43864937633187 
135.78994345706644, -0.19277981670185398, 20.93590575355592, 71.55323276631484, 87.4909682277015, 62.438982110752185 
134.85307550506116, -0.16496303990080824, 20.935906152832022, 76.67887965619204, 87.09428299174425, 62.43940326782956 
133.91640282530832, -0.131308208704268, 20.93590655289671, 80.43797605569974, 86.67701514042884, 62.43991263155422 
132.97996176398212, -0.09182564684529812, 20.93590690637376, 83.24671211410627, 86.2461066731089, 62.44050994081777 
132.04378822719258, -0.04652745241199005, 20.93590715782666, 85.37970791436292, 85.8058487746859, 62.441194889627525 
131.10791761268175, 0.004572512162330826, 20.935907243844156, 87.02020019435916, 85.35899375050919, 62.44196712735819 
130.17238474243965, 0.061458631513182566, 20.935907093138113, 88.2930624933756, 84.90737291362011, 62.44282625903945 
129.23722379635572, 0.12411355013150813, 20.935906626653633, 89.28543510203055, 84.45224720831962, 62.44377184567995 
128.30246824701769, 0.19251818648724212, 20.935905757691238, 90.05956026881765, 83.99451238068261, 62.4448034046268 
127.36815079576444, 0.2666517484507947, 20.935904392040953, 90.66087473888079, 83.53482302514793, 62.445920409960316 
126.4343033100957, 0.3464917499701443, 20.935902428128177, 91.1232140120685, 83.07366999028893, 62.44712229292391 
125.50095676253474, 0.43201402895796825, 20.935899757171068, 91.47223256706494, 82.61143011966269, 62.448408442387596 
124.56814117103582, 0.5231927663402309, 20.935896263349225, 91.72770070705079, 82.14839908433517, 62.4497782053461 
123.63588554102134, 0.6200005062150271, 20.93589182398361, 91.90507916361196, 81.6848135885963, 62.45123088744929 
122.70421780912844, 0.7224081770676989, 20.935886309727206, 92.01661963004709, 81.2208667228898, 62.45276575356582 
121.7731647887371, 0.8303851139860238, 20.935879584766383, 92.07214785909514, 80.75671879256177, 62.45438202837824 
120.84275211734716, 0.9438990818171322, 20.935871507032598, 92.07963017440355, 80.29250509498875, 62.45607889700963 
119.91300420586259, 1.0629162992058345, 20.935861928424217, 92.04558958682449, 79.82834159764097, 62.45785550568034 
118.98394418983742, 1.187401463452404, 20.935850695038003, 91.9754157582493, 79.36432914622428, 62.459710962394745 
118.05559388272795, 1.3173177761264934, 20.935837647410242, 91.8735988963881, 78.90055662646519, 62.461644337656715 
117.12797373119167, 1.4526269693724916, 20.93582262076694, 91.74390836681461, 78.43710336976419, 62.46365466521337 
116.20110277246442, 1.5932893328408075, 20.9358054452828, 91.58953060138005, 77.97404100482927, 62.46574094282584 
115.27499859384191, 1.7392637411787224, 20.935785946348847, 91.41317667229751, 77.51143489816417, 62.46790213306655 
114.34967729428455, 1.890507682014032, 20.935763944848023, 91.21716700370949, 77.04934528581752, 62.4701371641419 
113.42515344815712, 2.0469772843643046, 20.935739257438662, 91.00349867057547, 76.58782817074264, 62.472444930739535 
112.50144007111045, 2.2086273474045672, 20.935711696845285, 90.77389930533154, 76.12693604039472, 62.47482429489889 
111.57854858810359, 2.3754113695263706, 20.935681072156502, 90.52987060997837, 75.66671844514984, 62.47727408690463 
110.65648880356038, 2.547281577621558, 20.935647189129437, 90.27272373101485, 75.20722246801036, 62.479793106201534 
109.73526887364858, 2.72418895652446, 20.93560985050041, 90.00360821313926, 74.74849310868888, 62.482380122329914 
108.81489528066264, 2.9060832785472344, 20.9355688563015, 89.72353584752507, 74.2905735997322, 62.485033875880454 
107.89537280948832, 3.0929131330436865, 20.93552400418235, 89.43340043202384, 73.83350566830983, 62.48775307946766 
106.97670452611939, 3.284625955938213, 20.935475089737093, 89.13399423602735, 73.37732975426093, 62.490536418720495 
106.05889175819499, 3.4811680591576337, 20.935421906835703, 88.82602179224337, 72.92208519269997, 62.49338255328945 
105.14193407751907, 3.6824846599050702, 20.935364247959527, 88.51011150721807, 72.46781036772936, 62.49629011786874 
104.2258292845216, 3.888519909716634, 20.935301904540413, 88.18682548191198, 72.01454284246145, 62.499257723232375 
103.31057339461553, 4.099216923243244, 20.93523466730312, 87.85666785559327, 71.56231946950771, 62.502283957283616 
102.39616062640191, 4.314517806701701, 20.935162326610392, 87.52009192531919, 71.11117648527907, 62.50536738611563 
101.4825833916713, 4.534363685940973, 20.935084672810447, 87.17750624529582, 70.66114959080168, 62.508506555083486 
100.56983228714725, 4.7586947340718035, 20.93500149658624, 86.82927987243528, 70.21227402124683, 62.51169998988511 
99.65789608791617, 4.987450198609367, 20.93491258930615, 86.47574689420308, 69.76458460597196, 62.514946197650985 
98.74676174248454, 5.220568428081346, 20.934817743375586, 86.1172103506529, 69.31811582054873, 62.51824366804094 
97.83641436940435, 5.457986898055491, 20.934716752589043, 85.75394564307774, 68.87290183199553, 62.521590874347034 
96.92683725540536, 5.69964223654333, 20.934609412482185, 85.38620350596067, 68.42897653822321, 62.52498627460153 
96.0180118549726, 5.945470248738607, 20.934495520683466, 85.01421260611319, 67.98637360253394, 62.52842831268844 
95.10991779130649, 6.1954059410516455, 20.93437487726479, 84.63818182244322, 67.54512648387418, 62.53191541945785 
94.20253285860377, 6.44938354440278, 20.934247285090816, 84.25830225122864, 67.10526846343038, 62.53544601384191 
93.29583302559602, 6.707336536740805, 20.934112550166397, 83.8747489747194, 66.66683266806193, 62.539018503970965 
92.38979244028484, 6.969197664754043, 20.933970481981728, 83.48768262505853, 66.22985209098998, 62.54263128828899 
91.48438343581236, 7.23489896474462, 20.93382089385472, 83.09725077067228, 65.79435961009608, 62.546282756667516 
90.57957653740715, 7.5043717826385015, 20.933663603270148, 82.70358914824602, 65.36038800413151, 62.549971291516144 
89.67534047034746, 7.777546793105935, 20.933498432215167, 82.30682276003134, 64.92796996709458, 62.55369526888929 
88.77164216888468, 8.054354017769846, 20.933325207510663, 81.9070668533994, 64.49713812099456, 62.557453059587914 
87.86844678607265, 8.33472284248118, 20.933143761138147, 81.50442779717531, 64.06792502719067, 62.56124303025474 
86.96571770444989, 8.618582033643108, 20.932953930561567, 81.09900386727536, 63.640363196467696, 62.565063544462575 
86.06341654752511, 8.905859753567588, 20.932755559043827, 80.69088595246672, 63.214485097987186, 62.568912963794226 
85.16150319201836, 9.196483574850465, 20.93254849595734, 80.28015818961984, 62.790323167234526, 62.572789648913115 
84.25993578081369, 9.490380493752754, 20.932332597088482, 79.86689853659202, 62.36790981306557, 62.57669196062366 
83.35867073658157, 9.787476942578545, 20.932107724935317, 79.45117928982454, 61.94727742394304, 62.58061826092043 
82.45766277603397, 10.08769880104118, 20.931873748998264, 79.03306755283464, 61.52845837344077, 62.584566914025096 
81.55686492477714, 10.390971406611987, 20.931630546063403, 78.6126256610067, 61.11148502508384, 62.58853628741015 
80.65622853273165, 10.697219563847405, 20.931378000477924, 78.18991156741914, 60.696389736583576, 62.59252475280857 
79.75570329009327, 11.006367552692176, 20.931116004417365, 77.7649791938674, 60.28320486351939, 62.596530687208656 
78.85523724381169, 11.318339135758519, 20.930844458144357, 77.33787875074378, 59.87196276251221, 62.600552473832884 
77.95477681456953, 11.633057564582304, 20.93056327025846, 76.90865702900278, 59.462695793929164, 62.60458850310009 
77.05426681424645, 11.950445584859883, 20.93027235793674, 76.47735766706391, 59.055436324153796, 62.60863717357043 
76.1536504638606, 12.27042544066995, 20.929971647164802, 76.04402139517686, 58.65021672745208, 62.61269689287162 
75.25286941198137, 12.592918877687508, 20.92966107295795, 75.60868625948747, 58.24706938746085, 62.6167660786064 
74.35186375361432, 12.91784714539785, 20.929340579572152, 75.1713878277933, 57.84602669832134, 62.620843159240145 
73.45057204956369, 13.24513099832048, 20.92901012070451, 74.73215937875798, 57.447121065478946, 62.6249265749679 
72.54893134628168, 13.57469069625474, 20.928669659683028, 74.29103207616154, 57.05038490616609, 62.62901477856039 
71.64687719622142, 13.90644600355982, 20.928319169645267, 73.84803512959401, 56.65585064958474, 62.63310623618793 
70.74434367871298, 14.240316187484254, 20.92795863370583, 73.40319594285108, 56.26355073680157, 62.63719942822201 
69.84126342138991, 14.576220015560905, 20.927588045112234, 72.9565402511586, 55.8735176203682, 62.6412928500137 
68.93756762219732, 14.914075752085568, 20.927207407389087, 72.50809224823554, 55.48578376367697, 62.64538501264848 
68.03318607201948, 15.25380115369845, 20.92681673447029, 72.05787470410371, 55.10038164006129, 62.6494744436769 
