# MEX_intpoint_lon [deg], MEX_intpoint_lat [deg], MEX_intpoint_angle [deg], TGO_intpoint_lon [deg], TGO_intpoint_lat [deg], TGO_intpoint_angle [deg] 
-139.00477296209905, 19.51734194748701, 21.560422777683367, -27.62973834569478, 43.47870558199996, 62.84659210231516 
-139.9024565216335, 19.126380204299895, 21.560999108632927, -27.938896765223404, 43.879733470323636, 62.84199945911952 
-140.79851656993083, 18.736490033413205, 21.561564096041838, -28.24351217792168, 44.28340524276171, 62.83737512686305 
-141.69305243701217, 18.347764366635545, 21.562117581479175, -28.543490909162156, 44.68967119851179, 62.832720555599394 
-142.58616194949013, 17.960295481399072, 21.562659420256484, -28.838735398520033, 45.09848125556083, 62.82803723468434 
-143.47794140594067, 17.574175021952772, 21.563189481443068, -29.12914396973197, 45.509784929174835, 62.823326692263024 
-144.36848555347817, 17.18949401964516, 21.56370764786466, -29.414610587392445, 45.92353130848937, 62.81859049471043 
-145.25788756539296, 16.80634291225987, 21.564213816085473, -29.695024599469225, 46.3396690310858, 62.81383024602432 
-146.1462390197228, 16.424811562368674, 21.56470789637386, -29.970270464648873, 46.758146255428144, 62.80904758717234 
-147.03362987863775, 16.044989274669618, 21.56518981265151, -30.24022746344681, 47.17891063102484, 62.80424419539188 
-147.92014846852908, 15.666964812278767, 21.565659502426396, -30.504769391934023, 47.60190926616737, 62.79942178344493 
-148.80588146070107, 15.29082641194698, 21.566116916709483, -30.763764236843237, 48.02708869308507, 62.79458209882636 
-149.69091385257383, 14.916661798173804, 21.56656201991549, -31.01707383072135, 48.454394830341236, 62.78972692292782 
-150.57532894931475, 14.544558196192853, 21.56699478974777, -31.264553485690918, 48.883772942279826, 62.784858070156815 
-151.4592083458234, 14.174602343804368, 21.567415217067417, -31.506051604271015, 49.31516759531496, 62.77997738701162 
-152.34263190900464, 13.806880502031998, 21.567823305747037, -31.741409265586917, 49.748522610837156, 62.77508675111288 
-153.2256777602715, 13.441478464582572, 21.568219072509166, -31.970459785167108, 50.18378101448903, 62.77018807019242 
-154.10842225822864, 13.078481566088582, 21.56860254674963, -32.193028246384976, 50.62088498154126, 62.76528328104011 
-154.9909399814928, 12.71797468911501, 21.56897377034629, -32.40893100145067, 51.05977577807456, 62.76037434840933 
-155.87330371161738, 12.360042269912897, 21.569332797453075, -32.61797513969428, 51.500393697646345, 62.755463263881765 
-156.75558441609215, 12.004768302903951, 21.569679694280016, -32.81995792070605, 51.942677993091095, 62.75055204469318 
-157.6378512313992, 11.652236343881308, 21.570014538859215, -33.014666169708406, 52.3865668030705, 62.74564273251992 
-158.5201714461108, 11.302529511913507, 21.570337420797348, -33.20187563233235, 52.83199707295357, 62.740737392227864 
-159.40261048402422, 10.955730489939512, 21.570648441014903, -33.38135028575146, 53.27890446956743, 62.735838110584794 
-160.28523188733257, 10.611921524044643, 21.57094771147251, -33.552841602893736, 53.72722328931567, 62.730946994936986 
-161.16809729983888, 10.271184421408325, 21.571235354884802, -33.71608776620215, 54.17688635911371, 62.72606617185108 
-162.0512664502273, 9.933600546916216, 21.57151150442214, -33.87081282714898, 54.62782492953774, 62.721197785723014 
-162.93479713540955, 9.599250818430995, 21.571776303400647, -34.016725807427626, 55.07996855952547, 62.71634399735407 
-163.81874520397284, 9.26821570071755, 21.5720299049609, -34.15351973744726, 55.53324499190415, 62.71150698249673 
-164.70316453976017, 8.940575198020106, 21.57227247173578, -34.28087062744298, 55.98758001894992, 62.70668893037012 
-165.58810704561978, 8.616408845290557, 21.57250417550789, -34.39843636618515, 56.442897337106345, 62.70189204214774 
-166.47362262736615, 8.295795698069382, 21.572725196856997, -34.505855541931886, 56.89911838990427, 62.697118529417764 
-167.35975917800027, 7.978814321021991, 21.572935724797986, -34.60274617991737, 57.35616219803235, 62.69237061261811 
-168.24656256224182, 7.665542775135985, 21.573135956409757, -34.68870439031144, 57.81394517540443, 62.6876505194473 
-169.1340766014308, 7.356058603586516, 21.573326096455627, -34.76330292022783, 58.27238092995725, 62.68296048325276 
-170.0223430588613, 7.050438816279207, 21.573506356995672, -34.82608960300504, 58.731380047788505, 62.678302741398085 
-170.91140162561425, 6.7487598730826015, 21.573676956991555, -34.876585697646526, 59.190849859108944, 62.67367953361075 
-171.80128990695928, 6.451097665764425, 21.573838121904384, -34.91428411099536, 59.65069418433406, 62.669093100312246 
-172.69204340940206, 6.157527498648289, 21.573990083286034, -34.93864749494977, 60.110813058478364, 62.664545680931724 
-173.58369552845488, 5.86812406801014, 21.574133078364625, -34.949106210820126, 60.57110243183805, 62.660039512205145 
-174.47627753721275, 5.582961440236722, 21.574267349624506, -34.94505615280872, 61.03145384475487, 62.65557682646195 
-175.3698185758205, 5.302113028770364, 21.574393144381467, -34.92585642259545, 61.49175407404588, 62.65115984990025 
-176.26434564191842, 5.02565156986806, 21.574510714353725, -34.89082684717446, 61.951884748456585, 62.64679080085278 
-177.15988358215742, 4.753649097205089, 21.574620315229033, -34.83924533245992, 62.41172193025351, 62.64247188804585 
-178.0564550848755, 4.486176915356602, 21.574722206228792, -34.77034504582819, 62.87113565981185, 62.63820530885193 
-178.9540806740304, 4.223305572193686, 21.574816649669508, -34.68331142176607, 63.329989459778645, 62.63399324753879 
-179.85277870448343, 3.965104830233383, 21.574903910522263, -34.57727898624957, 63.7881397951027, 62.62983787351675 
179.24743464126925, 3.711643636985265, 21.574984255970776, -34.45132799750684, 64.2454354849208, 62.62574133958554 
178.34654535482028, 3.4629900943402205, 21.575057954968567, -34.3044809035681, 64.70171706198296, 62.62170578018314 
177.44454160193453, 3.219211427050506, 21.575125277795934, -34.13569862066128, 65.15681607498995, 62.61773330963855 
176.5414137208942, 2.980373950352852, 21.575186495617157, -33.94387664129129, 65.61055432891767, 62.613826020429705 
175.6371542190118, 2.7465430367899994, 21.575241880038664, -33.727840987018396, 66.06274305812275, 62.60998598144953 
174.73175776721592, 2.517783082288747, 21.57529170266865, -33.48634402884479, 66.51318202678297, 62.60621523628114 
173.82522119261947, 2.2941574715560096, 21.575336234678716, -33.218060208123724, 66.96165855104434, 62.60251580148449 
172.91754346897935, 2.0757285428570387, 21.57537574636818, -32.92158170347577, 67.40794643715408, 62.59888966489689 
172.00872570496236, 1.862557552243303, 21.575410506731583, -32.59541410488331, 67.8518048298941, 62.595338783948144 
171.0987711301345, 1.6547046373000152, 21.57544078302992, -32.237972175560095, 68.29297696583986, 62.59186508399363 
170.1876850785944, 1.4522287804862246, 21.575466840366254, -31.847575806088024, 68.73118882642085, 62.58847045666617 
169.27547497017733, 1.255187772142923, 21.57548894126615, -31.422446294487216, 69.16614768652602, 62.58515675824928 
168.36215028916095, 1.0636381732472635, 21.575507345263635, -30.96070312123363, 69.59754055558197, 62.581925808073265 
167.44772256040915, 0.877635277993003, 21.575522308493056, -30.46036143070359, 70.02503250975593, 62.57877938693644 
166.53220532289743, 0.6972330762796373, 21.575534083287522, -29.9193304810598, 70.44826491634488, 62.575719235553045 
165.61561410056925, 0.5224842161946115, 21.575542917784347, -29.335413384071906, 70.86685355469118, 62.572747053029744 
164.69796637047986, 0.3534399665745587, 21.575549055538076, -28.70630852546691, 71.28038664232115, 62.56986449537294 
163.77928152819294, 0.19015017973320092, 21.575552735141585, -28.029613135428555, 71.68842278068543, 62.56707317402798 
162.8595808504013, 0.03266325444464301, 21.57555418985582, -27.30282956746971, 72.09048884216443, 62.564374654452656 
161.9388874547538, -0.11897390072824696, 21.575553647248423, -26.523374940746944, 72.48607782919, 62.56177045472653 
161.017226256877, -0.26471590366983316, 21.575551328842153, -25.68859490315943, 72.87464674773616, 62.55926204419771 
160.09462392459156, -0.4045189344213477, 21.575547449773058, -24.795782375378842, 73.25561455134098, 62.55685084216885 
159.17110882933068, -0.5383407702731949, 21.575542218459294, -23.842202231573754, 73.62836022847267, 62.55453821662385 
158.2467109947794, -0.6661408201492374, 21.57553583628074, -22.825122949641393, 73.99222112556406, 62.552325482997176 
157.32146204276154, -0.7878801581929574, 21.575528497269914, -21.74185630631018, 74.34649162032063, 62.55021390298682 
156.39539513641338, -0.9035215564661682, 21.575520387814695, -20.589806179298137, 74.69042228455305, 62.54820468341301 
155.46854492069082, -1.0130295166722763, 21.575511686373112, -19.36652742284291, 75.02321970192753, 62.546298975123555 
154.5409474602686, -1.1163703008176649, 21.57550256320059, -18.069795571998775, 75.34404713217054, 62.544497871947335 
153.61264017490006, -1.213511960726591, 21.57549318009014, -16.697687768889914, 75.65202623710954, 62.542802409697785 
152.6836617723146, -1.304424366327301, 21.57548369012565, -15.248674753918129, 75.94624010222769, 62.54121356522672 
151.75405217874214, -1.3890792326297654, 21.57547423744881, -13.721722995474366, 76.2257377958659, 62.53973225553043 
150.82385246716154, -1.4674501453181932, 21.575464957039745, -12.116405026021356, 76.48954070155624, 62.53835933690925 
149.89310478338027, -1.539512584884872, 21.57545597451191, -10.433014819640468, 76.73665083127177, 62.5370956041806 
148.96185227006183, -1.6052439492355557, 21.57544740592125, -8.672683635337172, 76.96606127261887, 62.535941789948296 
148.03013898882602, -1.6646235747002684, 21.575439357590103, -6.837490263976664, 77.17676883612174, 62.534898563927285 
147.09800984055482, -1.717632755387958, 21.575431925945956, -4.930558219302515, 77.3677888470612, 62.53396653232596 
146.16551048404583, -1.7642547608275925, 21.575425197375267, -2.9561313306428745, 77.53817187117617, 62.53314623728611 
145.23268725316063, -1.8044748518432545, 21.575419248092658, -0.9196186955427811, 77.68702198196978, 62.532438156381524 
144.29958707262418, -1.8382802946157364, 21.575414144025466, 1.172399691405419, 77.81351598329067, 62.53184270217611 
143.36625737263506, -1.8656603728883465, 21.575409940714, 3.312213881558161, 77.9169228151009, 62.531360221841474 
142.43274600245417, -1.8866063982800363, 21.575406683227513, 5.491076125864715, 77.99662221899814, 62.53099099683522 
141.4991011431417, -1.9011117186746964, 21.575404406096023, 7.699345189625166, 78.05212165096526, 62.53073524263973 
140.56537121961824, -1.909171724661017, 21.5754031332581, 9.92667933302155, 78.08307042630588, 62.530593108562186 
139.63160481222678, -1.9107838540033986, 21.575402878024704, 12.1622697938952, 78.08927018071513, 62.530564677595976 
138.6978505679771, -1.9059475941302044, 21.575403643059026, 14.395102390577065, 78.07068093240201, 62.53064996634368 
137.76415711165276, -1.8946644826318042, 21.57540542037249, 16.614231771861373, 78.0274223166846, 62.53084892500153 
136.83057295696446, -1.876938105766852, 21.575408191336802, 18.809051410438673, 77.95976990451956, 62.531161437405736 
135.89714641793034, -1.8527740949813685, 21.57541192671215, 20.969542920397526, 77.86814686773009, 62.53158732114032 
134.96392552066519, -1.8221801214512776, 21.575416586691357, 23.086490591812012, 77.7531115717755, 62.53212632770649 
134.03095791575743, -1.785165888665023, 21.575422120960138, 25.151650769331596, 77.61534192375093, 62.532778142753216 
133.0982907914104, -1.7417431230687859, 21.57542846877318, 27.15787023303162, 77.45561745426389, 62.53354238636871 
132.1659707875206, -1.6919255628027638, 21.575435559046056, 29.09915237473954, 77.27480015901628, 62.53441861343261 
131.23404391086208, -1.635728944562526, 21.57544331046282, 30.970674084728266, 77.07381507752415, 62.53540631402808 
130.30255545154057, -1.5731709886250562, 21.57545163159919, 32.76875943808429, 76.85363146279124, 62.53650491391376 
129.3715499008754, -1.5042713820843854, 21.575460421061035, 34.490818291089695, 76.61524522372434, 62.5377137750543 
128.44107087086107, -1.4290517603468667, 21.575469567638123, 36.135258773365436, 76.35966312917023, 62.53903219620954 
127.51116101535311, -1.3475356869409836, 21.575478950472814, 37.70138255839032, 76.08788907244764, 62.54045941358092 
126.58186195311582, -1.2597486317012803, 21.57548843924357, 39.189270968821354, 75.80091252559639, 62.541994601514695 
125.65321419286064, -1.165717947390254, 21.575497894362943, 40.59966870136117, 75.49969917365459, 62.54363687326086 
124.72525706039644, -1.06547284482619, 21.57550716718986, 41.93387048941713, 75.18518361511873, 62.54538528178689 
123.79802862800285, -0.959044366588659, 21.575516100255875, 43.193614556616545, 74.85826394444592, 62.54723882064514 
122.87156564612978, -0.8464653593768175, 21.575524527505113, 44.380985383275245, 74.5197979919481, 62.54919642489301 
121.94590347751559, -0.7277704450987307, 21.575532274547538, 45.4983271853848, 74.17060098002037, 62.55125697206442 
121.0210760338074, -0.6029959907728392, 21.575539158925338, 46.54816861891638, 73.81144435625981, 62.553419283191545 
120.09711571475651, -0.4721800773249128, 21.575544990391883, 47.533158565678534, 73.44305557800742, 62.55568212387546 
119.17405335005206, -0.33536246736616887, 21.57554957120306, 48.45601240518829, 73.06611864438713, 62.5580442054044 
118.25191814384603, -0.1925845720397301, 21.57555269642052, 49.31946789511502, 72.681275197255, 62.560504185917985 
117.33073762201226, -0.04388941702417508, 21.57555415422642, 50.12624963380388, 72.28912603884588, 62.56306067161645 
116.41053758217254, 0.11067839221603332, 21.57555372624928, 50.879041027588734, 71.89023293944433, 62.56571221801269 
115.49134204651223, 0.2710727058429181, 21.575551187900555, 51.58046270329854, 71.48512063194431, 62.568457331226064 
114.57317321739906, 0.43724586562913126, 21.57554630872137, 52.23305636846918, 71.07427891108763, 62.57129446931643 
113.6560514358079, 0.6091487414231322, 21.57553885273909, 52.839273209792, 70.65816477324657, 62.574222043656064 
112.73999514254658, 0.7867307680046067, 21.575528578833165, 53.401466020714295, 70.23720454787389, 62.57723842033859 
111.82502084226748, 0.9699399822400061, 21.575515241109784, 53.92188435241561, 69.81179598436388, 62.58034192162287 
110.91114307024156, 1.1587230604490526, 21.575498589284877, 54.402672082408316, 69.38231026832443, 62.58353082740988 
109.99837436186368, 1.3530253558938217, 21.575478369074958, 54.845866887982964, 68.94909394945806, 62.58680337675106 
109.08672522484892, 1.5527909363037686, 21.575454322595203, 55.25340119562927, 68.51247076969626, 62.59015776938639 
108.1762041140743, 1.757962621351312, 21.575426188764435, 55.62710425162095, 68.07274338521849, 62.59359216731003 
107.26681740901086, 1.968482019994725, 21.57539370371621, 55.968705023178174, 67.6301949797755, 62.59710469636181 
106.35856939368686, 2.184289567606842, 21.575356601215745, 56.279835694526426, 67.18509076955709, 62.60069344784293 
105.45146223911547, 2.405324562810574, 21.575314613081943, 56.56203556855502, 66.73767940189009, 62.60435648015351 
104.5454959881158, 2.631525203944323, 21.575267469614037, 56.81675522356489, 66.2881942514901, 62.60809182045055 
103.64066854245031, 2.8628286250832873, 21.57521490002227, 57.045360806740966, 65.83685461895263, 62.61189746632379 
102.73697565219847, 3.0991709315449736, 21.575156632862114, 57.24913837241131, 65.38386683676771, 62.61577138748833 
101.83441090728164, 3.3404872348102477, 21.57509239647134, 57.429298194720744, 64.9294252884634, 62.61971152749129 
100.93296573105127, 3.5867116867942097, 21.57502191940942, 57.58697900181664, 64.47371334660019, 62.62371580543095 
100.03262937585004, 3.8377775134038266, 21.574944930898763, 57.72325209270101, 64.01690423530415, 62.627782117686586 
99.13338892045267, 4.093617047322717, 21.57486116126709, 57.83912530912752, 63.55916182288511, 62.63190833965661 
98.23522926929229, 4.354161759966257, 21.574770342390405, 57.93554684381848, 63.1006413498719, 62.636092327503384 
97.33813315337575, 4.619342292553526, 21.57467220813599, 58.01340887326904, 62.64149009753346, 62.640331919902856 
96.4420811327923, 4.889088486245425, 21.57456649480488, 58.07355100884585, 62.181848001664264, 62.6446249397969 
95.54705160071775, 5.163329411302019, 21.57445294157317, 58.11676356407591, 61.721848216105606, 62.64896919614625 
94.6530207888186, 5.44199339521455, 21.574331290931617, 58.143790639197924, 61.26161763016708, 62.65336248568293 
93.75996277395896, 5.725008049771403, 21.574201289122925, 58.15533302641733, 60.801277343805744, 62.65780259465931 
92.86784948611668, 6.012300297019826, 21.574062686576216, 58.152050941031554, 60.34094310412625, 62.6622873005927 
91.97665071741434, 6.3037963940885895, 21.573915238338028, 58.13456658480677, 59.88072570648157, 62.66681437400314 
91.08633413217393, 6.599421956839708, 21.573758704499316, 58.103466548802636, 59.420731363186476, 62.67138158014298 
90.19686527790621, 6.899101982320011, 21.57359285061792, 58.05930406334323, 58.96106204260518, 62.67598668071626 
89.30820759714769, 7.202760869986703, 21.573417448135885, 58.00260110309324, 58.501815781139335, 62.680627435585926 
88.42032244006192, 7.510322441683255, 21.573232274791145, 57.933850355274416, 58.043086970426245, 62.68530160446766 
87.53316907772437, 7.821709960345275, 21.573037115022967, 57.853517058994036, 57.584966621855536, 62.690006948608286 
86.64670471601423, 8.13684614741803, 21.572831760370725, 57.76204072349166, 57.12754261032805, 62.69474123244688 
85.76088451003982, 8.455653198970436, 21.57261600986534, 57.659836732868904, 56.67089989901109, 62.69950222525777 
84.8756615790291, 8.778052800492164, 21.57238967041299, 57.54729784457649, 56.21512074668856, 62.70428770277256 
83.99098702162006, 9.103966140363493, 21.572152557170526, 57.4247955886051, 55.76028489916264, 62.70909544878105 
83.10680993149143, 9.433313921989232, 21.571904493912076, 57.29268157398092, 55.3064697660338, 62.71392325670834 
82.2230774132785, 9.766016374590572, 21.57164531338645, 57.15128870880977, 54.853750584068095, 62.718768931167325 
81.33973459872333, 10.101993262650815, 21.57137485766473, 57.000932339754684, 54.4022005682526, 62.723630289484895 
80.45672466301487, 10.441163894012597, 21.571092978477722, 56.84191131647832, 53.95189105154231, 62.728505163200424 
79.57398884127923, 10.783447126626582, 21.57079953754272, 56.67450898623438, 53.502891614212324, 62.733391399535414 
78.6914664451859, 11.128761373953017, 21.5704944068792, 56.49899412345834, 53.05527020364874, 62.73828686283266 
77.80909487964168, 11.477024609019702, 21.570177469112984, 56.31562179888654, 52.60909324533703, 62.74318943596375 
76.92680965955036, 11.82815436714114, 21.569848617768535, 56.1246341924272, 52.164425745741234, 62.748097021704126 
76.04454442662107, 12.182067747305753, 21.569507757548852, 55.92626135371689, 51.72133138770495, 62.753007544073746 
75.16223096621623, 12.538681412239164, 21.56915480460276, 55.720721914022334, 51.27987261895097, 62.75791894964268 
74.27979922423481, 12.897911587153267, 21.56878968677912, 55.50822375289025, 50.84011073420593, 62.76282920880092 
73.39717732403408, 13.259674057192372, 21.56841234386753, 55.28896462270633, 50.40210595143016, 62.76773631699049 
72.51429158339974, 13.623884163588691, 21.568022727825497, 55.0631327340986, 49.96591748259239, 62.77263829589944 
71.63106653158093, 13.990456798541423, 21.567620802991346, 54.83090730490996, 49.53160359939034, 62.77753319461682 
70.74742492641376, 14.35930639883439, 21.56720654628288, 54.59245907526751, 49.099221694284445, 62.78241909074753 
69.86328777156439, 14.730346938209221, 21.566779947381388, 54.347950791094036, 48.668828337180415, 62.78729409148624 
