# MEX_intpoint_lon [deg], MEX_intpoint_lat [deg], MEX_intpoint_angle [deg], TGO_intpoint_lon [deg], TGO_intpoint_lat [deg], TGO_intpoint_angle [deg] 
-139.33541987499692, 19.59568908134635, 21.786517003820773, -27.424502259627644, 40.75653825926698, 62.90495485064211 
-140.2256776644351, 19.192594017934468, 21.787119896664322, -27.691590324538684, 41.16753120031811, 62.9002735937043 
-141.11431053195213, 18.790637907180354, 21.787710609458507, -27.953472974359023, 41.58104379627029, 62.89555567669358 
-142.00142283366029, 18.38991482900449, 21.78828897695165, -28.210045355790278, 41.9970187909794, 62.89080258301136 
-142.88711726827515, 17.99051820249771, 21.788854848649276, -28.46119849970151, 42.41539837826891, 62.88601584134758 
-143.7714948571449, 17.59254081010943, 21.78940808882904, -28.706819094392635, 42.83612417081467, 62.88119702514952 
-144.65465492529995, 17.196074820785853, 21.789948576537885, -28.94678924727621, 43.25913716664088, 62.876347752036125 
-145.53669508337583, 16.80121181202422, 21.790476205571466, -29.180986234284838, 43.684377713092914, 62.87146968315896 
-146.41771121027392, 16.40804279081063, 21.790990884435786, -29.409282236269604, 44.11178546814222, 62.86656452250961 
-147.29779743643482, 16.016658213411436, 21.79149253629128, -29.631544061609386, 44.54129935886722, 62.86163401617411 
-148.17704612761028, 15.62714800398942, 21.791981098879415, -29.847632854205237, 44.97285753694155, 62.85667995153436 
-149.05554786902977, 15.239601572017957, 21.79245652443191, -30.057403785984143, 45.40639733094836, 62.851704156417696 
-149.93339144986655, 14.854107828467717, 21.79291877956279, -30.260705732986093, 45.84185519532458, 62.846708498194296 
-150.81066384792013, 14.470755200741836, 21.793367845143305, -30.45738093405512, 46.279166655723614, 62.841694882823425 
-151.68745021443812, 14.089631646337063, 21.793803716160184, -30.647264631100224, 46.71826625056868, 62.836665253849254 
-152.56383385901256, 13.710824665209314, 21.794226401557125, -30.830184689835264, 47.159087468550354, 62.8316215913465 
-153.43989623449212, 13.334421310823739, 21.79463592405994, -31.005961199849118, 47.60156268180289, 62.82656591081691 
-154.31571692186156, 12.960508199870203, 21.795032319985626, -31.174406052798332, 48.04562307447276, 62.82150026203734 
-155.1913736150478, 12.589171520626575, 21.79541563903553, -31.335322497454158, 48.49119856636987, 62.816426727860105 
-156.06694210561952, 12.220497039953221, 21.795785944072907, -31.48850467027684, 48.93821773136824, 62.8113474229667 
-156.9424962673556, 11.854570108903388, 21.796143310885356, -31.633737100130112, 49.386607710195506, 62.80626449257571 
-157.81810804066538, 11.491475666935262, 21.796487827932193, -31.770794185691667, 49.836294117223616, 62.80118011110592 
-158.69384741685028, 11.131298244712866, 21.796819596077363, -31.899439644060237, 50.287200940841146, 62.79609648079577 
-159.56978242220532, 10.774121965484014, 21.797138728308063, -32.019425929009536, 50.73925043695639, 62.791015830280216 
-160.4459791019645, 10.420030545025051, 21.797445349439585, -32.130493617293915, 51.192363015143904, 62.785940413126006 
-161.32250150410133, 10.069107290143428, 21.797739595806704, -32.232370761374156, 51.646457116910376, 62.780872506327185 
-162.19941166300399, 9.72143509573034, 21.798021614942122, -32.32477220690522, 52.1014490855151, 62.77581440876112 
-163.07676958304876, 9.377096440357699, 21.798291565242213, -32.40739887331518, 52.55725302673695, 62.77076843960739 
-163.95463322210406, 9.036173380414674, 21.79854961562072, -32.479936995809005, 53.013780659934525, 62.7657369367304 
-164.83305847500228, 8.698747542781186, 21.79879594515078, -32.542057327157664, 53.47094115869638, 62.760722255026955 
-165.71209915702332, 8.364900116037207, 21.79903074269575, -32.59341429768669, 53.928640980327515, 62.755726764741155 
-166.59180698743958, 8.034711840208736, 21.79925420652924, -32.633645131965736, 54.386783683362765, 62.750752849746895 
-167.4722315731777, 7.708262995053203, 21.7994665439451, -32.66236892082945, 54.845269732240894, 62.74580290580086 
-168.35342039265822, 7.385633386889166, 21.799667970857545, -32.67918564753957, 55.30399628821271, 62.74087933876663 
-169.23541877987935, 7.066902333977318, 21.79985871139225, -32.68367516713821, 55.76285698549413, 62.73598456281217 
-170.11826990881633, 6.752148650462075, 21.80003899746876, -32.67539613835712, 56.22174169161061, 62.731120998582234 
-171.00201477821324, 6.441450628885439, 21.80020906837482, -32.65388490785174, 56.68053625081342, 62.726291071347454 
-171.8866921968472, 6.134886021287453, 21.80036917033322, -32.6186543470386, 57.13912220938133, 62.72149720913209 
-172.77233876935156, 5.83253201890996, 21.800519556061648, -32.56919264245387, 57.597376521555525, 62.71674184082196 
-173.65898888268734, 5.534465230523232, 21.80066048432624, -32.504962041340555, 58.05517123479033, 62.71202739425499 
-174.54667469335547, 5.240761659398001, 21.800792219489228, -32.4253975551429, 58.5123731529413, 62.707356294295664 
-175.43542611544805, 4.951496678948011, 21.800915031051552, -32.32990562477096, 58.968843475956575, 62.70273096089603 
-176.32527080963794, 4.666745007071685, 21.8010291931907, -32.217862752934245, 59.424437414589676, 62.69815380714475 
-177.21623417320905, 4.386580679224276, 21.801134984294755, -32.088614110574966, 59.87900377861606, 62.69362723730649 
-178.10833933123394, 4.111077020255249, 21.801232686492806, -31.94147212650953, 60.33238453701643, 62.6891536448537 
-179.0016071290047, 3.840306615048877, 21.8013225851829, -31.775715071867946, 60.784414348590175, 62.684735410492806 
-179.89605612582676, 3.574341278009481, 21.80140496855755, -31.590585653870363, 61.23492006149217, 62.68037490018706 
179.20829740971487, 3.3132520214360373, 21.80148012712795, -31.385289636970995, 61.68372018024961, 62.676074463178054 
178.3114395029058, 3.057109022834286, 21.801548353247103, -31.158994513511082, 62.13062429892563, 62.67183643000833 
177.41335847435886, 2.8059815912182584, 21.80160994063282, -30.910828250845096, 62.575432499260565, 62.667663110546876 
176.51404493966558, 2.5599381324562045, 21.801665183890908, -30.639878147529917, 63.01793471285818, 62.66355679202011 
175.6134918071345, 2.3190461137197844, 21.801714378039502, -30.345189837697486, 63.457910046803775, 62.659519737050296 
174.7116942735066, 2.0833720270986253, 21.8017578180348, -30.025766490268698, 63.895126072528335, 62.6555541817038 
173.8086498175433, 1.8529813524459762, 21.80179579829916, -29.680568258309123, 64.32933807828391, 62.6516623335514 
172.90435819138267, 1.6279385195243947, 21.80182861225196, -29.308512043669197, 64.76028828630223, 62.647846369742574 
171.9988214095637, 1.4083068695239902, 21.801856551843873, -28.9084716531661, 65.18770503659434, 62.64410843509669 
171.0920437356229, 1.194148616028745, 21.801879907095284, -28.47927843499728, 65.61130194045148, 62.64045064021252 
170.18403166617006, 0.9855248055097073, 21.801898965639282, -28.019722497827658, 66.03077700806044, 62.63687505959889 
169.27479391235718, 0.7824952774268115, 21.801914012269982, -27.528554629995988, 66.44581175629116, 62.633383729828644 
168.36434137865862, 0.5851186240240716, 21.801925328496626, -27.004489052383363, 66.8560703046924, 62.62997864771758 
167.4526871388873, 0.39345214990521415, 21.801933192104215, -26.446207155389903, 67.2611984700869, 62.62666176853135 
166.53984640937898, 0.2075518314798263, 21.801937876721066, -25.852362387720923, 67.66082287293085, 62.62343500422201 
165.62583651928287, 0.027472276371864026, 21.80193965139407, -25.221586481621507, 68.05455007183393, 62.620300221696326 
164.7106768779064, -0.1467333171152356, 21.80193878017193, -24.552497214874855, 68.44196574635087, 62.61725924111836 
163.79438893906857, -0.3150132003809311, 21.801935521697285, -23.843707923024997, 68.82263395237108, 62.61431383424787 
162.8769961624275, -0.47731711466009974, 21.8019301288079, -23.093838984231404, 69.19609647913533, 62.611465722817236 
161.95852397175443, -0.6335963308070391, 21.801922848147726, -22.301531501804057, 69.56187234205926, 62.60871657694837 
161.03899971013905, -0.7838036886313662, 21.801913919788174, -21.46546340320476, 69.91945745105234, 62.60606801361185 
160.11845259211995, -0.9278936356857674, 21.801903576860166, -20.584368156046825, 70.26832449974239, 62.60352159513046 
159.19691365274386, -1.0658222654051361, 21.801892045197462, -19.65705626783694, 70.60792312672855, 62.6010788277284 
158.2744156935705, -1.19754735449699, 21.8018795429917, -18.6824396830051, 70.93768040537661, 62.59874116012863 
157.3509932256482, -1.3230283994832917, 21.80186628045961, -17.6595591141615, 71.25700172332613, 62.59650998219997 
156.42668240949973, -1.4422266522947984, 21.801852459522834, -16.587614240739583, 71.56527211626472, 62.59438662365537 
155.50152099216604, -1.5551051548204116, 21.8018382735009, -15.465996574204896, 71.86185812199558, 62.592372352803565 
154.57554824137063, -1.661628772315285, 21.801823906817443, -14.294324623221454, 72.14611021962462, 62.59046837535544 
153.6488048768753, -1.7617642255739785, 21.8018095347205, -13.072480795222111, 72.41736591399207, 62.5886758332865 
152.72133299911235, -1.8554801217768966, 21.801795323016833, -11.800649246593908, 72.67495351641442, 62.58699580375729 
151.79317601518747, -1.942746983921374, 21.8017814278209, -10.479353650225615, 72.9181966585827, 62.5854292980929 
150.86437856236026, -2.02353727875185, 21.80176799531874, -9.109493599561159, 73.14641955645216, 62.583977260823204 
149.93498642911868, -2.0978254431072, 21.801755161546996, -7.692378131149736, 73.35895301482091, 62.582640568784605 
149.00504647397523, -2.1655879086071947, 21.80174305218747, -6.229754646904498, 73.5551411311651, 62.58142003028508 
148.07460654212218, -2.2268031246044817, 21.801731782377537, -4.7238313810505606, 73.73434861991437, 62.58031638433297 
147.14371538009252, -2.2814515793329613, 21.801721456536395, -3.177291515259488, 73.89596863720178, 62.57933029993134 
146.21242254858294, -2.3295158191886456, 21.801712168207775, -1.5932971275057313, 74.03943094348911, 62.578462375438015 
145.28077833360246, -2.370980466084137, 21.80170399991899, 0.024518611391872384, 74.16421020041224, 62.577713137992646 
144.34883365611904, -2.4058322328236157, 21.801697023056665, 1.6720721928643563, 74.26983416236486, 62.57708304301166 
143.41663998038248, -2.434059936451008, 21.801691297759326, 3.3448641354769495, 74.35589149669455, 62.5765724737512 
142.4842492211089, -2.45565450952997, 21.80168687282686, 5.038026945156962, 74.422038952718, 62.57618174093941 
141.55171364971653, -2.4706090093207678, 21.801683785647175, 6.7463858954522475, 74.46800760218552, 62.57591108247777 
140.61908579980792, -2.4789186248254165, 21.80168206213993, 8.46453106434655, 74.49360789423116, 62.5757606632127 
139.6864183720964, -2.4805806816790903, 21.801681716717574, 10.186898321515569, 74.49873330645494, 62.57573057477688 
138.75376413897766, -2.475594644872604, 21.80168275226368, 11.907856338383842, 74.4833624289002, 62.57582083550131 
137.82117584894905, -2.463962119297284, 21.801685160128613, 13.621796260553724, 74.4475593857147, 62.576031390397496 
136.88870613107957, -2.445686848110687, 21.801688920142528, 15.323220487268134, 74.39147257505316, 62.57636211121048 
135.95640739973382, -2.4207747089281457, 21.80169400064569, 17.006827068184393, 74.31533178514593, 62.57681279654212 
135.0243317597512, -2.389233707852168, 21.801700358536095, 18.667586546216793, 74.2194438170799, 62.577383172044684 
134.09253091228032, -2.3510739713582756, 21.801707939334293, 20.3008086098875, 74.10418680696746, 62.5780728906843 
133.16105606146533, -2.306307736062554, 21.801716677265333, 21.902196609918942, 73.97000348737768, 62.578881533074465 
132.2299578221759, -2.2549493364028517, 21.80172649535776, 23.467888769719522, 73.81739365750155, 62.579808607878185 
131.29928612896921, -2.19701519027164, 21.80173730555948, 24.99448570247002, 73.64690614279662, 62.58085355227929 
130.3690901464659, -2.132523782644987, 21.801749008870374, 26.479064570858327, 73.45913051891054, 62.58201573252163 
129.43941818131464, -2.0614956472578845, 21.801761495491462, 27.919180836543458, 73.254688854081, 62.58329444451526 
128.510317595914, -1.9839533463819583, 21.801774644990456, 29.31285901199221, 73.03422769248, 62.58468891450975 
127.58183472405187, -1.8999214487669558, 21.80178832648341, 30.658574134298615, 72.79841046204312, 62.586198299832525 
126.65401478861322, -1.809426505812618, 21.801802398832358, 31.955225833535472, 72.54791044805583, 62.58782168969205 
125.72690182149888, -1.7124970260422725, 21.801816710858446, 33.20210688512312, 72.28340443154059, 62.58955810604466 
124.80053858588775, -1.6091634479541048, 21.80183110157063, 34.39886804306174, 72.00556705198701, 62.591406504523796 
123.87496650096456, -1.499458111330022, 21.8018454004092, 35.54548077865419, 71.71506591907314, 62.593365775430144 
122.95022556922477, -1.3834152270859914, 21.80185942750423, 36.64219932708592, 71.41255746884202, 62.5954347447819 
122.02635430645746, -1.2610708457510071, 21.801872993948272, 37.68952319818072, 71.09868353673896, 62.59761217542354 
121.10338967449556, -1.1324628246648112, 21.801885902083207, 38.6881610591412, 70.77406860286348, 62.599896768191506 
120.1813670168115, -0.9976307939872789, 21.80189794580061, 39.63899666192925, 70.43931765324368, 62.60228716313552 
119.26031999702532, -0.8566161216145088, 21.80190891085549, 40.54305727662681, 70.09501459416558, 62.60478194079372 
118.34028054037968, -0.7094618770983809, 21.801918575192794, 41.4014849104927, 69.74172115374719, 62.60737962352031 
117.4212787782262, -0.5562127946680482, 21.8019267092863, 42.21551044262771, 69.37997620518168, 62.61007867686339 
116.5033429955549, -0.39691523545263946, 21.80193307648953, 42.98643068558893, 69.01029544859136, 62.61287751099203 
115.58649958158779, -0.23161714900528646, 21.801937433398162, 43.71558829553896, 68.63317139252824, 62.61577448217011 
114.67077298344681, -0.06036803422873555, 21.801939530223304, 44.404354388108445, 68.24907358123883, 62.618767894275166 
113.75618566289488, 0.11678110019708725, 21.801939111175535, 45.05411367415583, 67.85844901940892, 62.62185600036074 
112.84275805613944, 0.2997777757856974, 21.801935914858745, 45.66625190405462, 67.46172275185306, 62.62503700425953 
111.9305085366768, 0.4885680845137993, 21.801929674673588, 46.242145397296454, 67.05929856125248, 62.62830906222618 
111.01945338114601, 0.6830967292920073, 21.80192011922985, 46.78315243274337, 66.6515597523879, 62.631670284616895 
110.10960673815292, 0.883307064539883, 21.801906972767295, 47.290606280948815, 66.23886999624943, 62.63511873760437 
109.20098060001459, 1.0891411367702988, 21.801889955584283, 47.765809671249905, 65.82157421186686, 62.63865244492545 
108.2935847773678, 1.3005397250898678, 21.801868784473793, 48.210030500924, 65.39999946766889, 62.642269389659916 
107.387426876576, 1.5174423815246498, 21.80184317316612, 48.62449861014906, 64.9744558876496, 62.64596751603772 
106.48251227986381, 1.7397874710823586, 21.801812832777724, 49.01040346370074, 64.54523755061923, 62.649744731272776 
105.57884412809987, 1.9675122114653094, 21.801777472265634, 49.368892597469575, 64.1126233733752, 62.65359890742099 
104.67642330614422, 2.200552712350622, 21.801736798886864, 49.70107070442546, 63.676877970791175, 62.65752788326041 
103.77524843067047, 2.438844014157658, 21.801690518662117, 50.007999250235336, 63.238252487627484, 62.661529466191176 
102.87531584036844, 2.6823201262252843, 21.801638336843254, 50.29069652313005, 62.796985398360185, 62.66560143415314 
101.976619588429, 2.9309140643250338, 21.80157995838398, 50.550138035713374, 62.353303272548835, 62.669741537558636 
101.07915143720872, 3.18455788743944, 21.80151508841293, 50.78725720817588, 61.9074215042526, 62.67394750123877 
100.18290085497047, 3.4431827337381447, 21.801443432708762, 51.00294627284697, 61.45954500479716, 62.67821702640007 
99.28785501459153, 3.706718855687893, 21.801364698176428, 51.198057349250305, 61.009868858819786, 62.682547792590285 
98.39399879413178, 3.9750956542359073, 21.801278593324202, 51.373403646905615, 60.55857894400691, 62.68693745967027 
97.50131477915056, 4.248241712009824, 21.80118482874067, 51.529760760141265, 60.10585251530836, 62.69138366979034 
96.60978326666287, 4.526084825480458, 21.801083117571164, 51.66786802524717, 59.65185875468943, 62.69588404936837 
95.7193822706228, 4.808552036037819, 21.800973175992915, 51.78842991550978, 59.19675928767923, 62.700436211067895 
94.83008752882512, 5.0955696599334726, 21.800854723688495, 51.89211745412612, 58.74070866811028, 62.70503775577397 
93.94187251111443, 5.387063317046604, 21.80072748431661, 51.97956962878453, 58.283854832529215, 62.709686274564355 
93.0547084287946, 5.682957958433694, 21.800591185980043, 52.05139479491088, 57.82633952580418, 62.71437935067415 
92.16856424513173, 5.983177892625813, 21.80044556168972, 52.108172057284975, 57.368298699468816, 62.71911456145187 
91.28340668684652, 6.287646810640266, 21.800290349824568, 52.150452622004586, 56.90986288433233, 62.7238894803048 
90.39920025649482, 6.596287809676577, 21.800125294586515, 52.17876111267219, 56.45115753885742, 62.72870167863131 
89.51590724563759, 6.909023415470229, 21.79995014644987, 52.19359684625762, 55.99230337476483, 62.733548727738736 
88.6334877487052, 7.225775603280022, 21.799764662604776, 52.19543506539468, 55.53341666127192, 62.73842820074425 
87.75189967746456, 7.546465817488284, 21.79956860739391, 52.18472812494338, 55.07460950931382, 62.743337674457514 
86.87109877600149, 7.871014989795623, 21.799361752741937, 52.16190663152577, 54.61599013703189, 62.74827473124218 
85.99103863613504, 8.199343555994849, 21.799143878577237, 52.12738053545447, 54.1576631177493, 62.75323696085553 
85.1116707131853, 8.531371471310912, 21.798914773245222, 52.08154017504497, 53.69972961158656, 62.7582219622638 
84.23294434202006, 8.867018224296665, 21.79867423391279, 52.02475727375695, 53.24228758180317, 62.763227345431396 
83.35480675331222, 9.206202849276012, 21.798422066963305, 51.9573858909675, 52.78543199688692, 62.76825073308278 
82.4772030899437, 9.548843937328641, 21.79815808838171, 51.87976332745459, 52.329255019348174, 62.77328976243485 
81.60007642349768, 9.89485964581271, 21.7978821241291, 51.79221098687765, 51.87384618211518, 62.7783420868983 
80.7233677707869, 10.24416770642334, 21.797594010506362, 51.69503519469518, 51.41929255336818, 62.783405377746796 
79.84701611037059, 10.596685431787408, 21.797293594506435, 51.58852797606596, 50.965678890593125, 62.78847732575187 
78.97095839902032, 10.952329720596305, 21.79698073415459, 51.47296779435047, 50.51308778458358, 62.79355564278256 
78.09512958809903, 11.311017061280522, 21.796655298836388, 51.348620251868574, 50.06159979406798, 62.798638063367825 
77.21946263982605, 11.672663534231098, 21.79631716961283, 51.215738754584336, 49.61129357159347, 62.803722346221235 
76.34388854340582, 12.037184812575026, 21.79596623952231, 51.07456514238434, 49.162245981251544, 62.808806275725566 
75.46833633100563, 12.404496161512645, 21.795602413868917, 50.92533028659607, 48.714532208790104, 62.81388766337693 
74.59273309357421, 12.774512436226809, 21.7952256104967, 50.76825465636069, 48.268225864617285, 62.81896434918683 
73.7170039964998, 13.14714807837497, 21.79483576004958, 50.60354885543354, 47.82339908016543, 62.824034203040846 
72.8410722951144, 13.52231711117613, 21.79443280621649, 50.431414130937576, 47.380122598050754, 62.82909512601342 
71.96485935005688, 13.899933133106675, 21.794016705961447, 50.25204285554207, 46.9384658564314, 62.83414505163708 
71.0882846425168, 14.279909310219407, 21.793587429738167, 50.06561898448221, 46.49849706793829, 62.839181947125496 
70.2112657893868, 14.662158367102087, 21.793144961689023, 49.87231848877702, 46.06028329352502, 62.844203814549495 
69.33371855836138, 15.046592576492298, 21.792689299827963, 49.67230976594336, 45.62389051155829, 62.84920869196471 
