# MEX_intpoint_lon [deg], MEX_intpoint_lat [deg], MEX_intpoint_angle [deg], TGO_intpoint_lon [deg], TGO_intpoint_lat [deg], TGO_intpoint_angle [deg] 
-139.37529251375403, 19.60490908100119, 21.81414988065692, -27.397068132084858, 40.42257395549638, 62.91218844257989 
-140.26463162061904, 19.200350033781024, 21.814756022243973, -27.65945415311643, 40.83462772085575, 62.907501163046206 
-141.15234605975334, 18.796938209905647, 21.81534988011061, -27.916565344797878, 41.24918384537554, 62.90277661726164 
-142.03854079187457, 18.394767817198833, 21.815931288172944, -28.168295976933354, 41.666184154342034, 62.89801629123424 
-142.92331910138614, 17.993932402151504, 21.816500095229987, -28.41453619924358, 42.08556990380734, 62.89322171698885 
-143.80678257701567, 17.594524874474217, 21.81705616497863, -28.65517181642546, 42.507281748445486, 62.888394472033426 
-144.6890310934491, 17.19663753058235, 21.817599376010563, -28.890084051920212, 42.93125970697553, 62.88353617877117 
-145.5701627938117, 16.80036207598035, 21.81812962179135, -29.119149299729592, 43.35744312501585, 62.87864850385783 
-146.45027407286028, 16.405789646513075, 21.818646810621576, -29.34223886358113, 43.78577063522476, 62.873733157504745 
-147.3294595607612, 16.01301082845456, 21.81915086558033, -29.55921868270259, 44.21618011457009, 62.86879189272816 
-148.2078121073392, 15.622115677405654, 21.819641724450975, -29.769949043423363, 44.648608638559175, 62.863826504544896 
-149.0854227666929, 15.23319373597412, 21.820119339629446, -29.97428427577678, 45.08299243224703, 62.858838829114674 
-149.9623807820823, 14.846334050212104, 21.82058367801522, -30.17207243423149, 45.519266817826654, 62.853830742830496 
-150.83877357100417, 14.461625184786882, 21.821034720885024, -30.36315496163349, 45.95736615859045, 62.84880416135629 
-151.71468671037897, 14.07915523686298, 21.821472463749714, -30.547366335391743, 46.39722379903448, 62.843761038613415 
-152.5902039217839, 13.69901184867398, 21.821896916194202, -30.724533694891864, 46.838772000860814, 62.83870336571671 
-153.4654070566744, 13.321282218764518, 21.822308101701083, -30.894476449071977, 47.28194187461311, 62.83363316985987 
-154.3403760815446, 12.946053111883312, 21.822706057457776, -31.057005863045585, 47.726663306660846, 62.82855251315227 
-155.2151890629875, 12.573410867510027, 21.823090834147834, -31.211924622606407, 48.17286488122507, 62.82346349140691 
-156.08992215262106, 12.203441406999113, 21.823462495726485, -31.359026375401722, 48.62047379711527, 62.81836823288113 
-156.96464957185657, 11.836230239325744, 21.82382111918083, -31.498095247514613, 49.06941577882115, 62.81326889697069 
-157.83944359649243, 11.471862465419386, 21.824166794274927, -31.628905334151398, 49.519614981576034, 62.808167672858524 
-158.71437454112336, 11.110422781072458, 21.82449962328026, -31.751220163091688, 49.97099388997912, 62.803066778118655 
-159.58951074336437, 10.751995478412118, 21.82481972069185, -31.864792129524663, 50.42347320973274, 62.79796845727722 
-160.46491854789332, 10.39666444592503, 21.825127212930383, -31.969361900869647, 50.87697175201704, 62.79287498033132 
-161.3406622903251, 10.044513167026107, 21.82542223803084, -32.064657790162954, 51.3314063099884, 62.787788641226626 
-162.21680428093651, 9.695624717163462, 21.825704945318005, -32.150395096589875, 51.786691526850774, 62.782711756295924 
-163.0934047882668, 9.350081759453726, 21.82597549506927, -32.226275411753676, 52.242739754907156, 62.77764666265901 
-163.97052202262688, 9.007966538843, 21.826234058165195, -32.29198589030606, 52.69946090495698, 62.77259571658599 
-164.84821211955523, 8.669360874790799, 21.826480815728335, -32.347198483620815, 53.156762285358276, 62.7675612918251 
-165.72652912326507, 8.3343461524756, 21.826715958750714, -32.3915691352801, 53.61454843002712, 62.76254577789686 
-166.60552497013379, 8.003003312523097, 21.826939687710574, -32.42473693726653, 54.072720914595436, 62.75755157835551 
-167.485249472291, 7.675412839259546, 21.827152212178763, -32.44632324592327, 54.53117815989707, 62.752581109020326 
-168.36575030136683, 7.351654747495242, 21.827353750415416, -32.45593075696641, 54.989815221897196, 62.747636796177446 
-169.24707297246826, 7.031808567844951, 21.827544528957315, -32.4531425391208, 55.44852356712481, 62.74272107475466 
-170.12926082845627, 6.715953330594604, 21.827724782196626, -32.4375210263145, 55.90719083261142, 62.73783638647053 
-171.01235502460108, 6.404167548125849, 21.82789475195147, -32.40860696882313, 56.36570056928205, 62.7329851779598 
-171.89639451369774, 6.096529195912778, 21.82805468702887, -32.36591834432075, 56.82393196768818, 62.7281698988768 
-172.781416031729, 5.793115692107563, 21.828204842780753, -32.30894923048929, 57.281759564918026, 62.72339299997908 
-173.6674540841668, 5.4940038757344976, 21.828345480653482, -32.23716864168691, 57.73905293146787, 62.71865693119267 
-174.5545409330058, 5.199269983515118, 21.828476867731574, -32.150019333204256, 58.19567633681189, 62.71396413966138 
-175.4427065846294, 4.908989625349436, 21.82859927627617, -32.04691657787808, 58.65148839236971, 62.70931706778204 
-176.33197877860772, 4.623237758482106, 21.828712983258868, -31.927246921319753, 59.10634167054161, 62.70471815122746 
-177.22238297753339, 4.342088660384867, 21.828818269891524, -31.790366923792536, 59.5600822984679, 62.70016981695969 
-178.11394235800134, 4.065615900390269, 21.828915421152697, -31.635601898883092, 60.0125495251725, 62.69567448123519 
-179.00667780284203, 3.7938923101147286, 21.829004725311222, -31.462244661611486, 60.46357526077853, 62.691234547604104 
-179.9006078947179, 3.5269899527126434, 21.82908647344766, -31.26955430156817, 60.91298358654211, 62.68685240490653 
179.20425108880463, 3.264980091006483, 21.82916095897423, -31.056755000121303, 61.360590234546756, 62.682530425266606 
178.30788517859503, 3.007933154541324, 21.82922847715377, -30.8230349147721, 61.80620203604432, 62.67827096208802 
177.41028271559892, 2.7559187056160415, 21.829289324618447, -30.567545158427652, 62.24961633763111, 62.6740763480522 
176.5114343506653, 2.5090054043465, 21.829343798888857, -30.2893989067857, 62.69062038472215, 62.669948893121884 
175.6113330424501, 2.267260972820153, 21.82939219789397, -29.987670673269136, 63.12899067214755, 62.66589088255234 
174.709974053286, 2.030752158404444, 21.829434819492867, -29.661395798085543, 63.56449226216286, 62.66190457491202 
173.80735494291085, 1.799544696275414, 21.829471960998525, -29.309570206095103, 63.996878070757035, 62.65799220011562 
172.90347555994904, 1.573703271235979, 21.829503918704557, -28.93115049730689, 64.42588812388526, 62.654155957471446 
171.99833803104428, 1.353291478896941, 21.829530987415456, -28.525054444029866, 64.85124878617187, 62.65039801374501 
171.09194674754536, 1.1383717862970841, 21.82955345998079, -28.09016197998484, 65.27267196575426, 62.646720501242015 
170.1843083496511, 0.9290054920417279, 21.829571626834305, -27.625316778993387, 65.68985430030118, 62.64312551591211 
169.27543170792603, 0.7252526860423925, 21.829585775538103, -27.12932853408745, 66.10247633087438, 62.639615115476346 
168.3653279021035, 0.527172208943002, 21.829596190332953, -26.600976061822696, 66.51020167224581, 62.63619131758 
167.4540101970998, 0.33482161132071575, 21.829603151694908, -26.03901137089859, 66.91267619056815, 62.632856097973466 
166.54149401616914, 0.14825711275229672, 21.82960693589913, -25.442164848403184, 67.30952720195634, 62.62961138872328 
165.6277969111375, -0.03246643916117218, 21.829607814591313, -24.809151730419867, 67.70036270859765, 62.626459076455205 
164.71293852966033, -0.20729560971594627, 21.829606054367336, -24.138680035426578, 68.08477069248248, 62.6234010006321 
163.7969405794593, -0.37617841787672257, 21.829601916361668, -23.429460147662432, 68.46231849073689, 62.62043895186803 
162.87982678950024, -0.5390643767987194, 21.82959565584513, -22.680216241874856, 68.83255228081451, 62.617574670281314 
161.96162286808647, -0.6959045340010056, 21.829587521832444, -21.889699738668984, 69.19499670841466, 62.61480984388818 
161.04235645784902, -0.8466515110903262, 21.829577756700193, -21.056704968749585, 69.54915469583207, 62.612146107039216 
160.12205708762812, -0.9912595429341967, 21.829566595815596, -20.180087201995843, 69.89450747335864, 62.60958503890066 
159.20075612124944, -1.1296845161816533, 21.829554267176725, -19.258783160555712, 70.23051488112633, 62.60712816198223 
158.27848670321032, -1.2618840070302775, 21.829540991064416, -18.291834080828483, 70.55661599309911, 62.60477694071359 
157.35528370130248, -1.387817318138481, 21.8295269797066, -17.278411314200792, 70.87223011840611, 62.60253278007125 
156.4311836462092, -1.5074455145829446, 21.82951243695529, -16.21784435796512, 71.17675823736772, 62.6003970242575 
155.50622466812607, -1.6207314587623645, 21.82949755797677, -15.109651084049833, 71.46958492983474, 62.598370955433424 
154.58044643046736, -1.7276398441502545, 21.829482528955324, -13.953569783500226, 71.75008085118053, 62.596455792507186 
153.6538900607301, -1.8281372278016756, 21.829467526810937, -12.749592470626126, 72.0176058057699, 62.59465268997968 
152.72659807860094, -1.922192061521119, 21.829452718931357, -11.497998696764427, 72.2715124582786, 62.59296273684846 
151.79861432140166, -2.009774721601676, 21.82943826291882, -10.199388917630474, 72.5111507092476, 62.59138695557231 
150.86998386698028, -2.0908575370488673, 21.8294243063518, -8.854716252280864, 72.73587274228369, 62.58992630109639 
149.9407529541665, -2.1654148162060536, 21.829410986562127, -7.465315282110834, 72.9450387262126, 62.58858165994109 
149.01096890091998, -2.2334228717024733, 21.829398430427723, -6.032926385338366, 73.13802312651185, 62.587353849353825 
148.08068002031004, -2.294860043649157, 21.82938675418128, -4.559714009216783, 73.31422154728084, 62.586243616526716 
147.14993553447633, -2.3497067210128963, 21.82937606323504, -3.0482772727771774, 73.47305798924819, 62.58525163787981 
146.21878548672709, -2.397945361103237, 21.82936645202208, -1.501651389247128, 73.6139923729092, 62.5843785184117 
145.28728065194213, -2.439560507113047, 21.829358003854097, 0.07670138412225931, 73.7365281414666, 62.58362479111773 
144.3554724454538, -2.4745388036586955, 21.829350790796088, 1.6829122132344354, 73.84021972888216, 62.58299091647733 
143.42341283058764, -2.5028690102719455, 21.829344873557904, 3.3127380444964643, 73.92467965727214, 62.582477282010395 
142.4911542250489, -2.5245420128015525, 21.829340301403008, 4.961605751963446, 73.9895850181352, 62.58208420190372 
141.55874940634888, -2.539550832689267, 21.829337112074416, 6.6246673347330285, 74.03468309590998, 62.5818119167082 
140.62625141646714, -2.5478906340911283, 21.829335331737937, 8.29686477027978, 74.05979591150908, 62.58166059310649 
139.69371346595102, -2.5495587288218173, 21.829334974942878, 9.973002517589425, 74.06482349778813, 62.58163032375228 
138.76118883765548, -2.5445545791065505, 21.829336044600222, 11.647825154998355, 74.04974576685944, 62.581721127180785 
137.82873079032862, -2.532879798131915, 21.829338531978177, 13.316097284677005, 74.01462288771727, 62.581932947790875 
136.8963924622487, -2.5145381483938576, 21.82934241671534, 14.972682677085858, 73.95959415754102, 62.582265655898645 
135.96422677511836, -2.4895355378480217, 21.829347666851312, 16.612619682104697, 73.88487541624883, 62.58271904786283 
135.03228633841996, -2.457880013874583, 21.82935423887468, 18.23119019293154, 73.79075511619659, 62.58329284628111 
134.1006233544352, -2.4195817550763774, 21.82936207778845, 19.823979885696627, 73.67758921263727, 62.58398670025779 
133.16928952412695, -2.3746530609360934, 21.82937111719269, 21.386928025392102, 73.54579508197492, 62.5848001857422 
132.23833595407936, -2.323108339364662, 21.829381279384478, 22.9163657696059, 73.39584470166977, 62.585732805937155 
131.30781306468532, -2.264964092179622, 21.82939247547467, 24.409042555444408, 73.22825733713704, 62.58678399177725 
130.37777049976643, -2.2002388985583496, 21.829404605521823, 25.86214076688703, 73.04359197786489, 62.5879531024762 
129.44825703780234, -2.1289533965171965, 21.829417558682568, 27.273279405839308, 72.842439749218, 62.58923942614251 
128.5193205049398, -2.0511302624732255, 21.829431213378697, 28.64050790135458, 72.62541650076942, 62.59064218046273 
127.59100768994388, -1.9667941889508318, 21.829445437480402, 29.96229147456958, 72.39315573971092, 62.59216051345096 
126.6633642612439, -1.8759718605007114, 21.829460088505666, 31.237489632806884, 72.14630204211612, 62.59379350426451 
125.73643468621847, -1.7786919279035327, 21.82947501383528, 32.46532940725634, 71.88550503845413, 62.59554016408344 
124.8102621528534, -1.6749849807351749, 21.82949005094354, 33.64537489436767, 71.61141403512255, 62.59739943705396 
123.88488849389589, -1.5648835183746248, 21.82950502764399, 34.77749453499283, 71.32467330260967, 62.59937020129354 
122.96035411361802, -1.448421919539397, 21.8295197623501, 35.86182739128293, 71.0259180342898, 62.601451269956996 
122.03669791729097, -1.3256364104368008, 21.829534064350405, 36.89874948126454, 70.71577095831441, 62.60364139236181 
121.11395724346023, -1.1965650316224428, 21.829547734097886, 37.888841023285245, 70.39483956861868, 62.60593925517131 
120.19216779910103, -1.0612476036598955, 21.829560563513006, 38.83285524130869, 70.0637139294128, 62.60834348363431 
119.27136359772017, -0.9197256916778541, 21.82957233630018, 39.731689197288674, 69.72296500012709, 62.610852642879266 
118.35157690046064, -0.7720425689228119, 21.829582828277232, 40.58635695464233, 69.37314342396981, 62.613465239261714 
117.43283816025195, -0.6182431794068649, 21.82959180771727, 41.39796524004865, 69.01477872233575, 62.61617972176261 
116.5151759690388, -0.4583740997511097, 21.82959903570267, 42.16769165985074, 68.64837883859506, 62.6189944834366 
115.59861700810885, -0.29248350032608234, 21.829604266490705, 42.896765440923865, 68.27442997767906, 62.62190786290754 
114.68318600152877, -0.12062110579057386, 21.829607247890177, 43.58645060158663, 67.89339669183657, 62.62491814591004 
113.76890567268728, 0.05716184486956466, 21.829607721648763, 44.238031412996214, 67.50572216752096, 62.62802356687449 
112.85579670393378, 0.2408126387016593, 21.829605423850413, 44.852799982304, 67.11182867324185, 62.63122231055409 
111.94387769928963, 0.43027712944520263, 21.829600085322333, 45.432045772564294, 66.71211813311649, 62.63451251369149 
111.03316515020049, 0.6254997783904812, 21.82959143205103, 45.97704686813954, 66.3069727955944, 62.63789226672308 
110.12367340428848, 0.8264236953390071, 21.829579185606825, 46.48906279563314, 65.8967559712818, 62.641359615518624 
109.21541463705378, 1.0329906795697998, 21.82956306357632, 46.96932871709013, 65.48181281788051, 62.64491256315482 
108.30839882646757, 1.2451412607172223, 21.829542780002257, 47.419050822596176, 65.06247115393825, 62.64854907171928 
107.40263373038971, 1.462814739468686, 21.829518045830095, 47.83940276209696, 64.63904228637408, 62.652267064144134 
106.49812486673821, 1.6859492279925572, 21.829488569360887, 48.23152297017529, 64.2118218395999, 62.656064426066095 
105.59487549633023, 1.9144816900095787, 21.82945405670965, 48.59651275186503, 63.78109057652804, 62.65993900771115 
104.692886608309, 2.1483479804236194, 21.82941421226886, 48.93543501175977, 63.34711520386466, 62.66388862580151 
103.79215690806483, 2.387482884430918, 21.82936873917624, 49.24931352229092, 62.9101491558744, 62.667911065482585 
102.89268280755492, 2.6318201560297405, 21.82931733978643, 49.53913263983722, 62.47043335229585, 62.67200408226775 
101.99445841792128, 2.881292555855854, 21.82925971614573, 49.80583738913287, 62.028196927327436, 62.67616540399845 
101.09747554430294, 3.13583188827254, 21.82919557046944, 50.05033384718543, 61.5836579276214, 62.68039273281764 
100.20172368273644, 3.395369037647104, 21.82912460562113, 50.27348976758406, 61.13702397805074, 62.68468374715405 
99.30719001903499, 3.659834003749643, 21.829046525593103, 50.476135394693706, 60.688492914678285, 62.68903610371525 
98.4138594295363, 3.9291559362129576, 21.828961035987703, 50.65906442484584, 60.23825338488489, 62.693447439486846 
97.52171448360643, 4.203263167996506, 21.82886784449844, 50.82303507831635, 59.78648541502466, 62.697915373736016 
96.63073544778821, 4.482083247800269, 21.82876666139069, 50.96877125170588, 59.333360946291684, 62.70243751001702 
95.74090029148061, 4.765542971378592, 21.82865719998107, 51.09696372538586, 58.87904433971899, 62.70701143817616 
94.85218469403816, 5.053568411706938, 21.828539177114973, 51.20827140502663, 58.42369285140219, 62.71163473635447 
93.96456205317786, 5.346084947958531, 21.828412313641667, 51.30332257996011, 57.96745707915855, 62.716304972985576 
93.07800349458513, 5.643017293250785, 21.828276334886247, 51.382716184320095, 57.51048138190939, 62.72101970878694 
92.19247788261006, 5.944289521125182, 21.828130971117904, 51.44702304961708, 57.052904273114386, 62.725776498741766 
91.30795183194815, 6.249825090727343, 21.82797595801379, 51.49678713970307, 56.59485878960277, 62.73057289407037 
90.42438972020331, 6.559546870657156, 21.827811037118114, 51.532526761019724, 56.13647283713996, 62.73540644418813 
89.54175370123217, 6.873377161462247, 21.827635956295453, 51.55473574264916, 55.67786951404652, 62.74027469864832 
88.66000371917372, 7.191237716750688, 21.82745047017816, 51.56388458204751, 55.219167414152345, 62.74517520906806 
87.77909752307104, 7.513049762902191, 21.827254340606945, 51.560421553470206, 54.76048091032607, 62.75010553103496 
86.89899068199658, 7.838734017359287, 21.827047337064126, 51.544773777034266, 54.30192041977094, 62.755063225992934 
86.01963660059579, 8.168210705483421, 21.82682923709912, 51.5173482471303, 53.84359265222456, 62.76004586310523 
85.14098653497005, 8.501399575962596, 21.82659982674543, 51.47853281952537, 53.38560084214527, 62.76505102109272 
84.26298960882286, 8.838219914760508, 21.826358900928696, 51.42869715700614, 52.92804496591002, 62.770076290045566 
83.38559282979979, 9.17859055759885, 21.826106263865206, 51.36819363381939, 52.47102194499264, 62.77511927320717 
82.50874110595733, 9.522429900966928, 21.825841729450424, 51.29735819949124, 52.01462583603478, 62.78017758872789 
81.6323772623011, 9.869655911655064, 21.82556512163693, 51.21651120285904, 51.55894800866667, 62.78524887138732 
80.75644205734038, 10.22018613480971, 21.825276274801325, 51.12595817734433, 51.104077311882335, 62.79033077428375 
79.88087419961067, 10.573937700510873, 21.824975034099598, 51.025990588640745, 50.65010022972173, 62.79542097048852 
79.00561036412331, 10.930827328873413, 21.82466125581049, 50.916886546095306, 50.197101026964255, 62.800517154664774 
78.1305852087063, 11.29077133367634, 21.824334807666425, 50.79891147913334, 49.745161885490624, 62.80561704464831 
77.2557313902077, 11.65368562452499, 21.82399556917146, 50.67231878012192, 49.29436303192667, 62.81071838298984 
76.38097958053908, 12.019485707553363, 21.823643431905978, 50.53735041508827, 48.844782857140224, 62.815818938456694 
75.50625848254333, 12.388086684674564, 21.8232782998176, 50.39423750371496, 48.39649802812321, 62.82091650749313 
74.63149484567857, 12.759403251389172, 21.822900089497956, 50.243200870022754, 47.949583592754585, 62.826008915638184 
73.7566134815155, 13.13334969316268, 21.822508730444973, 50.08445156513188, 47.504113077903725, 62.83109401889911 
72.88153727905514, 13.509839880383977, 21.822104165310225, 49.918191363461595, 47.06015858130332, 62.83616970508044 
72.00618721987865, 13.888787261918676, 21.82168635013114, 49.744613233692206, 46.6177908575888, 62.84123389506651 
71.13048239315091, 14.270104857271722, 21.82125525454763, 49.56390178577123, 46.1770793988742, 62.8462845440573 
70.25434001050553, 14.653705247375402, 21.82081086200284, 49.37623369520096, 45.73809251020731, 62.85131964275612 
69.37767542084833, 15.039500564019452, 21.820353169927852, 49.18177810579651, 45.30089738022286, 62.85633721850874 
