# MEX_intpoint_lon [deg], MEX_intpoint_lat [deg], MEX_intpoint_angle [deg], TGO_intpoint_lon [deg], TGO_intpoint_lat [deg], TGO_intpoint_angle [deg] 
-139.18961142879877, 19.56154064352438, 21.686123664589687, -27.521153880093824, 41.96809916587841, 62.87884046168774 
-140.0831866691042, 19.163798960571086, 21.686714758345474, -27.80610654017894, 42.374962260514124, 62.87418983386226 
-140.97513684626134, 18.767166243961746, 21.687294046088926, -28.086126352015494, 42.78440430018599, 62.86950475292325 
-141.86556410163973, 18.37173608633156, 21.687861365594607, -28.361112499537, 43.19637138534286, 62.86478669012745 
-142.7545689877874, 17.977601421840298, 21.688416568940557, -28.630960106766178, 43.610809139238775, 62.86003715936621 
-143.6422504463186, 17.584854549033217, 21.688959522523433, -28.89556000683095, 44.027662680841644, 62.85525771664147 
-144.52870578690886, 17.193587152714557, 21.689490107056276, -29.1547984984743, 44.44687659554385, 62.85044995949089 
-145.41403066725175, 16.803890324798072, 21.690008217549185, -29.408557089254053, 44.868394903545685, 62.84561552636241 
-146.29831907384605, 16.41585458410094, 21.69051376327271, -29.65671222457337, 45.29216102577306, 62.8407560959381 
-147.181663303489, 16.0295698950499, 21.691006667704254, -29.899135001623375, 45.71811774717854, 62.83587338640811 
-148.06415394536367, 15.645125685269534, 21.691486868457513, -30.13569086725656, 46.1462071772631, 62.83096915469478 
-148.945879863618, 15.26261086202498, 21.691954317195062, -30.366239298742098, 46.5763707076421, 62.82604519562753 
-149.82692818034056, 14.882113827492706, 21.692408979524238, -30.59063346628313, 47.008548966464176, 62.821103341068714 
-150.70738425885153, 14.503722492834243, 21.69285083487662, -30.80871987610033, 47.44268176947645, 62.81614545899139 
-151.58733168723094, 14.127524291049752, 21.69327987637109, -31.020337992805132, 47.87870806751102, 62.81117345250922 
-152.46685226202027, 13.753606188589103, 21.693696110660806, -31.225319839701516, 48.31656589014972, 62.806189258859526 
-153.34602597203778, 13.382054695700052, 21.694099557764307, -31.423489575564922, 48.75619228530326, 62.80119484833944 
-154.22493098225922, 13.01295587549364, 21.694490250880992, -31.614663046351993, 49.19752325441829, 62.79619222319732 
-155.10364361772127, 12.64639535170922, 21.6948682361912, -31.798647310195243, 49.640493683001914, 62.79118341647844 
-155.98223834741498, 12.282458315161662, 21.695233572641218, -31.9752401339322, 50.085037266126655, 62.78617049082732 
-156.8607877681423, 11.921229528855527, 21.695586331713518, -32.144229459309244, 50.53108642854986, 62.781155537246754 
-157.73936258831776, 11.562793331751537, 21.695926597182524, -32.305392836887236, 50.97857223905092, 62.77614067381477 
-158.6180316117033, 11.20723364117254, 21.6962544648562, -32.458496825558306, 51.42742431855449, 62.77112804436076 
-159.49686172107235, 10.85463395383694, 21.696570042303957, -32.60329635546328, 51.8775707415725, 62.76611981710128 
-160.37591786180576, 10.505077345509495, 21.696873448571115, -32.739534051976044, 52.328937930456014, 62.76111818323716 
-161.25526302542872, 10.15864646926036, 21.6971648138803, -32.86693951829778, 52.7814505419056, 62.7561253555131 
-162.13495823310504, 9.815423552324868, 21.69744427932032, -32.98522857408082, 53.235031345140804, 62.751143566740325 
-163.01506251911047, 9.475490391558292, 21.697711996522784, -33.094102447381594, 53.6896010910785, 62.74617506828462 
-163.89563291431483, 9.138928347481029, 21.69796812732701, -33.193246917126686, 54.145078371813824, 62.74122212852004 
-164.7767244297062, 8.80581833691178, 21.698212843433534, -33.282331403170126, 54.60137946963756, 62.736287031250406 
-165.65839003999926, 8.47624082418766, 21.698446326046838, -33.36100800092578, 55.05841819475885, 62.731372074099646 
-166.540680667373, 8.150275810972536, 21.698668765507758, -33.42891045748337, 55.51610571083147, 62.726479566872435 
-167.42364516539044, 7.828002824656177, 21.6988803609158, -33.48565308606496, 55.97435034730685, 62.72161182988703 
-168.30733030315733, 7.509500905349615, 21.69908131974229, -33.5308296156604, 56.43305739755557, 62.716771192281335 
-169.19178074978205, 7.194848591483691, 21.699271857434493, -33.56401197270188, 56.89212890161174, 62.71195999029419 
-170.0770390592048, 6.884123904020255, 21.699452197011443, -33.584748991715834, 57.35146341230223, 62.70718056552322 
-170.96314565546717, 6.577404329287802, 21.69962256865191, -33.592565052034026, 57.81095574342327, 62.702435263161476 
-171.85013881849966, 6.274766800455954, 21.699783209275118, -33.58695863787689, 58.27049669852229, 62.697726430213834 
-172.73805467050667, 5.976287677665429, 21.69993436211469, -33.56740081945926, 58.72997277873247, 62.69305641369554 
-173.62692716303516, 5.682042726833051, 21.70007627628641, -33.53333365323807, 59.18926586799211, 62.68842755881448 
-174.51678806481365, 5.392107097154162, 21.700209206350443, -33.48416850005467, 59.64825289386106, 62.68384220713896 
-175.40766695045463, 5.106555297327333, 21.700333411868485, -33.419284260756285, 60.10680546202376, 62.67930269475294 
-176.29959119011392, 4.825461170529626, 21.700449156956367, -33.33802552995797, 60.564789462444516, 62.674811350400766 
-177.1925859402048, 4.548897868173408, 21.70055670983298, -33.239700669978696, 61.022064645016926, 62.67037049362288 
-178.08667413526638, 4.276937822478802, 21.700656342365733, -33.12357980871635, 61.478484162430966, 62.665982432885166 
-178.98187648108734, 4.009652717899249, 21.700748329613475, -32.98889276738933, 61.933894077869326, 62.66164946370332 
-179.87821144918803, 3.747113461440678, 21.70083294936723, -32.83482692675454, 62.38813283504728, 62.657373866764395 
179.22430472723542, 3.4893901519181227, 21.700910481689498, -32.66052504371304, 62.841030688032625, 62.653157906047895 
178.32565805580026, 3.2365520481969026, 21.700981208452674, -32.465083034254704, 63.29240908823312, 62.64900382694797 
177.4258367857556, 2.9886675364689124, 21.70104541287719, -32.24754774360731, 63.74208002592932, 62.64491385439916 
176.5248314070256, 2.745804096617728, 21.70110337906998, -32.00691473040066, 64.18984532377496, 62.64089019100762 
175.6226346473751, 2.5080282677297614, 21.701155391563894, -31.742126098809536, 64.63549587979983, 62.63693501518977 
174.71924146759488, 2.2754056128118827, 21.701201734858596, -31.45206842119961, 65.0788108576556, 62.63305047932086 
173.81464905460865, 2.0480006827792576, 21.701242692963724, -31.135570803987108, 65.51955682216504, 62.629238707895205 
172.9088568124027, 1.8258769797803542, 21.701278548944636, -30.79140316147351, 65.95748681870374, 62.625501795700174 
172.00186635068576, 1.6090969199292606, 21.70130958447162, -30.41827477658082, 66.39233939559522, 62.62184180600647 
171.0936814711888, 1.3977217955185193, 21.701336079372922, -30.0148332439433, 66.82383756958194, 62.618260768776324 
170.1843081515175, 1.1918117367885077, 21.70135831119242, -29.579663909950483, 67.251687735597, 62.614760678891884 
169.27375452647806, 0.9914256733324824, 21.701376554752223, -29.111289946291546, 67.67557852356619, 62.61134349440604 
168.36203086679896, 0.7966212952188552, 21.7013910817211, -28.608173218468945, 68.09517960688682, 62.608011134817374 
167.4491495551805, 0.6074550139148089, 21.701402160189016, -28.068716138664215, 68.5101404696399, 62.604765479371785 
166.53512505960757, 0.42398192309791705, 21.70141005424858, -27.49126472312655, 68.92008914257976, 62.6016083653925 
165.61997390387026, 0.24625575944413533, 21.701415023583717, -26.8741131075425, 69.32463092160731, 62.598541586640444 
164.70371463524356, 0.07432886348286417, 21.701417323066337, -26.215509808923713, 69.72334708686328, 62.59556689170728 
163.78636778928578, -0.09174785938887227, 21.701417202361334, -25.51366605824853, 70.11579364587122, 62.59268598244279 
162.86795585172374, -0.2519249776395907, 21.701414905540606, -24.766766562632196, 70.50150013039529, 62.58990051241863 
161.94850321740137, -0.40615457198919025, 21.70141067070643, -23.97298308662849, 70.87996848391244, 62.587212085430444 
161.02803614627894, -0.5543902733520817, 21.701404729624855, -23.130491265878014, 71.250672084844, 62.584622254040006 
160.10658271647864, -0.6965873002416159, 21.701397307369493, -22.237491078081092, 71.61305495989609, 62.582132518159604 
159.1841727743829, -0.8327024955397224, 21.701388621976225, -21.29223139028244, 71.96653125187333, 62.57974432367961 
158.26083788180196, -0.9626943625358586, 21.701378884109214, -20.293038970466952, 72.31048501687837, 62.57745906114217 
157.33661126023827, -1.0865231001397986, 21.701368296738767, -19.238352286965217, 72.64427043644095, 62.575278064461706 
156.41152773228512, -1.2041506371737294, 21.701357054831405, -18.126760311655087, 72.9672125401758, 62.57320260969406 
155.48562366020883, -1.315540665650396, 21.701345345052502, -16.957046382537495, 73.2786085431347, 62.571233913856425 
154.55893688177352, -1.4206586729455157, 21.701333345482066, -15.728236958714554, 73.57772990790448, 62.56937313379873 
153.63150664337962, -1.5194719727748478, 21.70132122534381, -14.439654809024146, 73.86382524323871, 62.567621365128666 
152.7033735305968, -1.6119497348884322, 21.701309144748034, -13.090975811757392, 74.13612414687357, 62.56597964119119 
151.774579396184, -1.6980630133974848, 21.701297254448594, -11.682288111008784, 74.39384208829343, 62.56444893210402 
150.84516728569815, -1.7777847736522967, 21.701285695614295, -10.214151889007194, 74.63618640570668, 62.56303014385081 
149.91518136080475, -1.851089917593085, 21.701274599614997, -8.687657499453042, 74.86236345875317, 62.56172411743226 
148.98466682041249, -1.9179553074994358, 21.701264087822764, -7.104479205101436, 75.07158693346155, 62.56053162807728 
148.0536698197636, -1.9783597880682144, 21.701254271428216, -5.466921328997222, 75.26308723866813, 62.55945338451442 
147.122237387621, -2.0322842067541425, 21.701245251272482, -3.777953330685701, 75.43612186485149, 62.558490028305016 
146.19041734170094, -2.0797114323121697, 21.701237117694784, -2.04123023066819, 75.58998650024563, 62.55764213323877 
145.2582582025088, -2.1206263714856086, 21.701229950396115, -0.2610949992850553, 75.72402662021221, 62.55691020479263 
144.32580910574146, -2.155015983789541, 21.701223818318844, 1.5574399455235564, 75.83764919107827, 62.55629467965342 
143.3931197134277, -2.18286929434433, 21.70121877954278, 3.4087341005318326, 75.93033406724014, 62.55579592530543 
142.46024012398271, -2.2041774047201197, 21.701214881197508, 5.28658384560145, 76.00164461903907, 62.55541423968269 
141.52722078135824, -2.218933501758818, 21.701212159391417, 7.184310279985799, 76.05123711670048, 62.55514985088718 
140.59411238347406, -2.2271328643465957, 21.701210639157182, 9.094867571072864, 76.07886841826154, 62.5550029169729 
139.66096579011972, -2.2287728681158354, 21.701210334414096, 11.010967878116464, 76.08440156911213, 62.554973525796115 
138.72783193051808, -2.2238529880620566, 21.701211247947064, 12.925217553459948, 76.06780901530048, 62.55506169493232 
137.79476171074353, -2.2123747990677214, 21.701213371402417, 14.830258359565205, 76.02917325519698, 62.55526737165934 
136.86180592118862, -2.1943419743312496, 21.701216685300494, 16.71890700167141, 75.9686848935503, 62.55559043300753 
135.92901514427274, -2.169760281706169, 21.701221159065007, 18.584286423808503, 75.88663820494253, 62.55603068587598 
134.99643966258495, -2.138637577961674, 21.70122675106913, 20.41994302959892, 75.78342444615849, 62.55658786721559 
134.0641293676512, -2.1009838009823834, 21.701233408698233, 22.219945171087495, 75.65952326660856, 62.55726164427785 
133.13213366951393, -2.0568109599312847, 21.701241068429244, 23.978959743131036, 75.51549264363435, 62.55805161492972 
132.2005014073068, -2.0061331234062516, 21.701249655926485, 25.69230534338827, 75.35195781068025, 62.558957308033655 
131.26928076100475, -1.9489664056262295, 21.701259086153783, 27.35598202764096, 75.1695996509964, 62.55997818389268 
130.3385191645218, -1.885328950689553, 21.701269263502915, 28.966679056552213, 74.96914300189145, 62.56111363475961 
129.4082632203254, -1.8152409149519741, 21.701280081937973, 30.521763090717705, 74.75134526162594, 62.562362985410076 
128.4785586157271, -1.7387244475779153, 21.701291425155624, 32.01924999795921, 74.51698562135888, 62.56372549377807 
127.54945004100311, -1.6558036693232747, 21.701303166761, 33.45776379221445, 74.26685516676874, 62.565200351654 
126.6209811094898, -1.5665046496132666, 21.701315170458965, 34.83648626763316, 74.00174801573016, 62.56678668544324 
125.69319427979039, -1.4708553819832244, 21.701327290260522, 36.15510068907047, 73.72245358574489, 62.5684835569854 
124.76613078021987, -1.3688857579546896, 21.7013393707041, 37.413732525145726, 73.4297500217715, 62.57028996443205 
123.8398305356061, -1.2606275394230346, 21.701351247091445, 38.612889734431555, 73.12439876387013, 62.57220484318288 
122.91433209655385, -1.1461143296364928, 21.701362745737672, 39.7534046012594, 72.80714019528475, 62.57422706687808 
121.98967257126995, -1.02538154284976, 21.701373684235392, 40.83637861321814, 72.47869028463695, 62.576355448446265 
121.06588756003526, -0.8984663727381591, 21.70138387173229, 41.86313141094739, 72.1397381194352, 62.57858874120666 
120.14301109240016, -0.7654077596610132, 21.701393109221996, 42.83515444193544, 71.7909442203311, 62.58092564002332 
119.22107556716806, -0.6262463568649657, 21.701401189847747, 43.75406962222283, 71.43293952458181, 62.583364782511076 
118.30011169522157, -0.4810244957197988, 21.70140789921852, 44.62159305342609, 71.06632493118923, 62.5859047502908 
117.38014844523433, -0.32978615008063483, 21.701413015737103, 45.43950365207891, 70.69167130757995, 62.5885440702924 
116.46121299230137, -0.1725768998717382, 21.7014163109398, 46.20961641555341, 70.30951986713201, 62.59128121610462 
115.54333066950959, -0.009443893987425706, 21.70141754984726, 46.9337599640481, 69.92038283729424, 62.59411460936904 
114.62652492245985, 0.15956418739370556, 21.701416491325933, 47.61375795151939, 69.52474434870356, 62.597042621217284 
113.71081726674215, 0.33439717098523775, 21.701412888459757, 48.251413920934226, 69.12306148603018, 62.600063573748926 
112.79622724835481, 0.5150034289643111, 21.7014064889315, 48.848499182927746, 68.7157654509169, 62.60317574154893 
111.88277240704967, 0.7013299178428897, 21.701397035413343, 49.40674331529388, 68.30326279611526, 62.60637735324217 
110.9704682425756, 0.8933222175447798, 21.701384265966077, 49.92782690846189, 67.88593669766286, 62.60966659308365 
110.0593281837844, 1.090924570595459, 21.701367914446564, 50.4133762151687, 67.46414823867678, 62.61304160258194 
109.14936356055387, 1.294079921333534, 21.701347710922633, 50.86495939792381, 67.03823768409316, 62.616500482154166 
108.24058357847666, 1.502729955054038, 21.70132338209529, 51.28408410343153, 66.60852573053383, 62.620041292810626 
107.33299529625397, 1.7168151369961664, 21.701294651727217, 51.67219612743417, 66.17531471951484, 62.62366205786659 
106.42660360572869, 1.936274751089977, 21.701261241077354, 52.03067896554135, 65.73888980552505, 62.627360764679786 
105.52141121448409, 2.1610469383792297, 21.701222869340835, 52.36085407499194, 65.29952007318957, 62.63113536641099 
104.61741863093079, 2.391068735039956, 21.701179254093706, 52.66398169871514, 64.85745959988698, 62.63498378380601 
103.71462415179717, 2.626276109917251, 21.70113011174191, 52.94126212648134, 64.4129484618892, 62.63890390699669 
102.81302385193592, 2.8666040015055443, 21.701075157973822, 53.19383728845763, 63.96621368342005, 62.64289359731912 
101.91261157635438, 3.111986354300745, 21.701014108215936, 53.422792594288424, 63.51747012904177, 62.646950689146735 
101.01337893437268, 3.3623561544557052, 21.700946678090855, 53.62915894613821, 63.06692134054048, 62.65107299173611 
100.11531529581207, 3.6176454646735756, 21.700872583877256, 53.81391486720843, 62.614760320036346, 62.655258291083754 
99.21840778911186, 3.87778545827705, 21.700791542971004, 53.97798869832902, 62.16117026143425, 62.65950435179131 
98.32264130127349, 4.142706452394543, 21.700703274346907, 54.122260824569594, 61.70632523259021, 62.66380891893741 
97.42799847952716, 4.412337940208075, 21.700607499020553, 54.247565901646226, 61.250390810724696, 62.66816971995389 
96.53445973461763, 4.686608622210351, 21.700503940509495, 54.354695058425136, 60.79352467369078, 62.67258446650453 
95.64200324560389, 4.965446436422661, 21.700392325293326, 54.44439805723352, 60.33587714971995, 62.67705085636387 
94.75060496606937, 5.248778587527714, 21.7002723832719, 54.51738539814636, 59.87759172823781, 62.68156657529456 
93.86023863163854, 5.536531574875556, 21.70014384822124, 54.57433035707354, 59.41880553427741, 62.68612929892068 
92.9708757686983, 5.828631219323342, 21.7000064582464, 54.61587095044904, 58.959649768929175, 62.69073669459564 
92.08248570422352, 6.125002688873422, 21.69985995623083, 54.64261182173503, 58.50025011816124, 62.6953864232619 
91.19503557660809, 6.425570523077047, 21.699704090281482, 54.655126046891034, 58.04072713222822, 62.7000761413016 
90.30849034740598, 6.730258656174093, 21.699538614169246, 54.65395685750111, 57.581196577764935, 62.704803502374965 
89.42281281388851, 7.038990438942357, 21.69936328776406, 54.63961928146973, 57.12176976453745, 62.70956615924571 
88.53796362232855, 7.351688659232603, 21.699177877464095, 54.612601702145376, 56.66255384870016, 62.714361765590766 
87.65390128192436, 7.668275561168693, 21.698982156618456, 54.573367337458265, 56.20365211428649, 62.71918797779305 
86.77058217928112, 7.988672862994402, 21.698775905942973, 54.52235564120538, 55.745164234542614, 62.7240424567152 
85.88796059337065, 8.312801773551673, 21.69855891392834, 54.45998362901656, 55.28718651460091, 62.72892286945254 
85.00598871089576, 8.640583007376998, 21.698330977240207, 54.38664713181571, 54.82981211688243, 62.73382689106362 
84.12461664198891, 8.971936798405585, 21.698091901110605, 54.30272197977672, 54.37313127051502, 62.738752206276864 
83.24379243618058, 9.306782912274834, 21.697841499720287, 54.208565119882664, 53.91723146595847, 62.743696511171294 
82.36346209857739, 9.645040657221035, 21.69757959657143, 54.10451567024459, 53.462197635937905, 62.74865751482988 
81.48356960619509, 9.986628893565504, 21.6973060248501, 53.99089591433693, 53.008112323701866, 62.75363294096451 
80.60405692439798, 10.331466041787817, 21.69702062777824, 53.86801223827056, 52.55505583954423, 62.75862052950984 
79.72486402340017, 10.679470089186527, 21.696723258954464, 53.73615601415957, 52.10310640645518, 62.763618038186195 
78.84592889479212, 11.030558595128639, 21.696413782683397, 53.59560443255295, 51.652340295699794, 62.768623244028774 
77.96718756805976, 11.384648694891812, 21.69609207429294, 53.4466212868012, 51.202831953059366, 62.77363394488247 
77.08857412707148, 11.74165710210399, 21.69575802043922, 53.28945771211715, 50.75465411641351, 62.77864796086075 
76.21002072651318, 12.101500109787555, 21.695411519398686, 53.12435288197183, 50.307877925287215, 62.783663135767746 
75.33145760825906, 12.46409359001595, 21.695052481346963, 52.95153466434413, 49.862573022937674, 62.78867733848171 
74.45281311767214, 12.829352992192586, 21.694680828624197, 52.771220240219705, 49.41880765151086, 62.79368846429926 
73.57401371983487, 13.197193339963126, 21.694296495986375, 52.583616686611066, 48.97664874075503, 62.79869443623894 
72.69498401571829, 13.567529226773381, 21.69389943084237, 52.38892152624888, 48.53616199074086, 62.80369320630344 
71.81564675830418, 13.94027481008681, 21.69348959347639, 52.18732324597611, 48.0974119490015, 62.808682756698964 
70.93592286868297, 14.31534380427631, 21.69306695725541, 51.97900178576051, 47.660462082474105, 62.813661101011284 
70.0557314521568, 14.692649472206886, 21.692631508821506, 51.764129000130296, 47.22537484459352, 62.81862628533733 
69.17498981438604, 15.072104615526419, 21.69218324826852, 51.54286909373039, 46.79221173786193, 62.82357638937161 
