# MEX_intpoint_lon [deg], MEX_intpoint_lat [deg], MEX_intpoint_angle [deg], TGO_intpoint_lon [deg], TGO_intpoint_lat [deg], TGO_intpoint_angle [deg] 
-139.3531349790327, 19.599791904878888, 21.798784803538627, -27.41235272186029, 40.60829183568805, 62.90816399574756 
-140.24298520786178, 19.196046391069775, 21.79938913863092, -27.67734214230873, 41.019759629093684, 62.90347993773704 
-141.13121061614473, 18.793443500877046, 21.79998124768647, -27.937095042278727, 41.433739446919205, 62.898758950441774 
-142.0179158286837, 18.39207737133391, 21.800560965084077, -28.1915061672766, 41.850173624811035, 62.89400251845934 
-142.90320380448756, 17.99204147841282, 21.801128140015543, -28.44046614453694, 42.26900393980858, 62.889212171999326 
-143.78717581707056, 17.593428661375416, 21.801682636500523, -28.683861257053405, 42.69017157876773, 62.884389486351026 
-144.66993143576053, 17.196331146064896, 21.802224333383712, -28.921573206155138, 43.11361710437588, 62.879536081296735 
-145.55156850786838, 16.800840567106814, 21.802753124313952, -29.153478861950344, 43.5392804186227, 62.87465362047124 
-146.43218314158432, 16.40704798898615, 21.803268917705815, -29.379450000918034, 43.96710072358255, 62.86974381066704 
-147.31186968947424, 16.01504392597087, 21.803771636683283, -29.599353029885894, 44.397016479351024, 62.864808401086584 
-148.1907207324629, 15.624918360853055, 21.804261219006083, -29.813048695587455, 44.82896535896782, 62.85984918254127 
-149.06882706419876, 15.236760762481289, 21.80473761697844, -30.020391778945115, 45.26288420014347, 62.85486798659757 
-149.94627767570714, 14.850660102058704, 21.805200797340635, -30.22123077317695, 45.698708953594156, 62.849866684671326 
-150.8231597402461, 14.466704868182887, 21.805650741143474, -30.4154075447749, 46.136374627773264, 62.84484718707036 
-151.6995585982902, 14.084983080605133, 21.80608744360583, -30.602756976350225, 46.57581522977135, 62.83981144198594 
-152.57555774257577, 13.705582302687695, 21.806510913955503, -30.783106590288632, 47.01696370213904, 62.834761434434135 
-153.45123880315, 13.328589652539115, 21.80692117525367, -30.956276152103346, 47.45975185536738, 62.82969918514758 
-154.32668153237512, 12.954091812808615, 21.8073182642031, -31.12207725231945, 47.90411029574005, 62.82462674941834 
-155.2019637898465, 12.582175039122031, 21.8077022309405, -31.28031286566744, 48.34996834824865, 62.81954621589276 
-156.0771615271931, 12.21292516714273, 21.808073138813196, -31.430776886309417, 48.79725397423929, 62.81445970531941 
-156.95234877273407, 11.846427618242199, 21.808431064140517, -31.573253637767785, 49.24589368343133, 62.80936936925092 
-157.827597615976, 11.482767403766134, 21.808776095960248, -31.707517356174872, 49.695812439922804, 62.80427738870058 
-158.70297819194005, 11.122029127883192, 21.809108335760353, -31.833331645414397, 50.14693356176556, 62.79918597275496 
-159.57855866531764, 10.764296989004702, 21.80942789719657, -31.950448902682187, 50.59917861366245, 62.79409735714373 
-160.45440521445875, 10.409654779764963, 21.809734905795995, -32.0586097129578, 51.05246729230311, 62.78901380276751 
-161.33058201520547, 10.058185885553236, 21.81002949864729, -32.15754221085101, 51.50671730381919, 62.783937594185595 
-162.2071512245889, 9.709973281589646, 21.810311824077754, -32.246961408271254, 51.96184423279961, 62.77887103806404 
-163.08417296441485, 9.365099528539249, 21.810582041317865, -32.32656848636709, 52.417761402265135, 62.77381646158613 
-163.96170530477016, 9.023646766659418, 21.810840320153513, -32.39605005020008, 52.874379723956416, 62.76877621082654 
-164.83980424748748, 8.685696708478034, 21.81108684056661, -32.45507734465808, 53.33160753824268, 62.763752649089966 
-165.71852370961287, 8.35133063000112, 21.81132179236445, -32.5033054301817, 53.78935044290819, 62.75874815521679 
-166.59791550692628, 8.020629360451057, 21.8115453747983, -32.54037231698247, 54.247511110020646, 62.75376512185639 
-167.47802933757063, 7.693673270537715, 21.81175779617174, -32.56589805657762, 54.7059890900311, 62.74880595371023 
-168.3589127658511, 7.370542259267708, 21.81195927343931, -32.57948378966584, 55.16468060219695, 62.74387306574633 
-169.24061120627152, 7.051315739298531, 21.81215003179591, -32.58071074962985, 55.62347831036043, 62.73896888138641 
-170.12316790787963, 6.736072620846945, 21.812330304257646, -32.56913922128912, 56.08227108305392, 62.73409583066811 
-171.0066239389985, 6.424891294163207, 21.812500331234386, -32.54430745495405, 56.540943736841555, 62.72925634838354 
-171.891018172425, 6.117849610585526, 21.812660360094966, -32.50573053636871, 56.99937676174424, 62.72445287219608 
-172.7763872711822, 5.815024862191459, 21.812810644725314, -32.45289921379425, 57.45744602753456, 62.719687840737684 
-173.66276567491548, 5.516493760065644, 21.812951445080174, -32.38527868430305, 57.91502246962912, 62.714963691687906 
-174.55018558702608, 5.222332411206732, 21.8130830267291, -32.30230734235096, 58.371971753251216, 62.71028285983762 
-175.4386769626401, 4.9326162940983505, 21.81320566039711, -32.20339549490728, 58.8281539144889, 62.705647775138104 
-176.32826749751356, 4.647420232972896, 21.813319621500867, -32.08792404888267, 59.283422976834395, 62.70106086073874 
-177.21898261797676, 4.366818370799564, 21.813425189680764, -31.955243178349523, 59.73762654176475, 62.69652453101475 
-178.11084547202435, 4.090884141031347, 21.81352264832963, -31.804670981145012, 60.190605351914684, 62.69204118958714 
-179.00387692165887, 3.819690238149163, 21.813612284118665, -31.63549213693902, 60.642192825405616, 62.68761322733691 
-179.89809553659734, 3.5533085870445564, 21.813694386521245, -31.44695658180018, 61.09221455993741, 62.68324302041602 
179.20648241054823, 3.2918103112858303, 21.813769247335152, -31.238278217771306, 61.54048780532789, 62.67893292825702 
178.30984294750496, 3.0352657003159162, 21.8138371602039, -31.008633680047616, 61.9868209033106, 62.674685291583096 
177.41197440387674, 2.7837441756339882, 21.813898420137818, -30.757161189118964, 62.43101269358313, 62.67050243042194 
176.5128674108732, 2.5373142560159843, 21.81395332303544, -30.48295952077886, 62.87285188535183, 62.66638664212422 
175.61251489912127, 2.29604352183312, 21.814002165205864, -30.18508713331034, 63.31211639395889, 62.66234019939008 
174.71091209444825, 2.0599985785306743, 21.814045242892732, -29.86256149852191, 63.748572642621625, 62.658365348304955 
173.8080565115322, 1.8292450193330358, 21.814082851800404, -29.51435869171627, 64.18197482988717, 62.654464306388 
172.90394794531286, 1.603847387244149, 21.814115286623007, -29.13941330520472, 64.6120641641272, 62.650639260654245 
171.99858846006407, 1.3838691364162452, 21.81414284057691, -28.736618760692085, 65.03856806730134, 62.64689236569358 
171.09198237602914, 1.1693725929625798, 21.814165804937264, -28.304828107775442, 65.46119935133063, 62.643225741768454 
170.1841362535273, 0.9604189152933871, 21.814184468579274, -27.842855408905223, 65.8796553717827, 62.63964147293268 
169.2750588744427, 0.7570680540571122, 21.81419911752469, -27.34947782536121, 66.2936171652123, 62.63614160517334 
168.36476122101448, 0.559378711771926, 21.814210034494216, -26.82343853391709, 66.70274857846533, 62.63272814457847 
167.45325645185181, 0.3674083022352338, 21.814217498466377, -26.263450619596416, 67.10669540058224, 62.62940305553224 
166.54055987510452, 0.18121290980139257, 21.814221784243397, -25.668202105790485, 67.50508451066007, 62.62616825894006 
165.62668891872855, 0.0008472486200383979, 21.81422316202476, -25.036362298332406, 67.89752305819066, 62.623025630485884 
164.7116630977914, -0.17363537807025364, 21.814221896988887, -24.366589633961862, 68.28359769600142, 62.61997699892365 
163.79550397877367, -0.34218311849674066, 21.814218248883584, -23.657541234719407, 68.66287388999497, 62.61702414440496 
162.87823514082987, -0.5047456126577042, 21.814212471625698, -22.907884376557902, 69.0348953343974, 62.6141687968454 
161.95988213398206, -0.6612740322790702, 21.814204812910663, -22.11631008082359, 69.399183506131, 62.61141263433108 
161.0404724342293, -0.8117211203223221, 21.814195513832278, -21.281549028772247, 69.75523739713381, 62.60875728156783 
160.12003539556744, -0.9560412299430241, 21.814184808513307, -20.40238997904228, 70.10253346880238, 62.60620430837455 
159.19860219892288, -1.0941903627991736, 21.814172923747392, -19.477700832719634, 70.44052587801494, 62.60375522822324 
158.27620579801535, -1.2261262066085588, 21.814160078652787, -18.5064524367511, 70.76864702909099, 62.60141149682692 
157.35288086217733, -1.3518081718547932, 21.814146484338217, -17.48774514040313, 71.08630851015467, 62.59917451077771 
156.4286637161668, -1.4711974275426247, 21.814132343581484, -16.420838017935257, 71.39290247518504, 62.59704560623664 
155.50359227702356, -1.5842569359043805, 21.814117850521193, -15.305180541152946, 71.68780353393974, 62.595026057677046 
154.57770598803012, -1.6909514859608503, 21.81410319036184, -14.140446326937514, 71.97037121022412, 62.59311707668258 
153.65104574984926, -1.79124772584232, 21.814088539093014, -12.926568398316649, 72.23995302387681, 62.591319810802595 
152.72365384892314, -1.8851141937774603, 21.81407406322268, -11.663775187282624, 72.49588824257562, 62.589635342465115 
151.7955738832288, -1.9725213476610026, 21.814059919525135, -10.352626281427286, 72.73751233542092, 62.58806468794967 
150.86685068549724, -2.0534415931140337, 21.81404625480401, -8.994046687178864, 72.96416214068786, 62.586608796420734 
149.9375302440133, -2.127849309954608, 21.814033205670377, -7.589358167567095, 73.17518173490748, 62.58526854902393 
149.00765962112428, -2.1957208770001264, 21.81402089833656, -6.140306034254131, 73.3699289597329, 62.58404475804508 
148.07728686959572, -2.257034695127429, 21.814009448425708, -4.649079657873575, 73.54778252764095, 62.582938166134205 
147.14646094696153, -2.3117712085211726, 21.813998960797466, -3.118324934800393, 73.708149588855, 62.581949445594624 
146.21523162802575, -2.359912924046027, 21.813989529389996, -1.551147037891367, 73.85047360213488, 62.58107919773912 
145.28364941568037, -2.4014444286836354, 21.81398123707851, 0.0488979967268084, 73.97424231411942, 62.58032795231295 
144.35176545021247, -2.4363524049808265, 21.813974155550515, 1.6778239255678762, 74.07899561911549, 62.579696166985364 
143.41963141727996, -2.464625644461462, 21.813968345197907, 3.3312477662184046, 74.16433304721332, 62.57918422690972 
142.48729945474267, -2.486255058960333, 21.813963855026202, 5.004436021645895, 74.22992061681327, 62.57879244435314 
141.55482205853872, -2.501233689843953, 21.813960722580784, 6.692362899877652, 74.275496790856, 62.57852105839601 
140.62225198780348, -2.5095567150894564, 21.813958973890497, 8.38977904312413, 74.30087729590706, 62.57837023470177 
139.689642169429, -2.5112214541994806, 21.813958623428498, 10.091288599477384, 74.30595859988007, 62.578340065357395 
138.7570456022671, -2.5062273709376552, 21.8139596740905, 11.791431901993317, 74.29071989596966, 62.57843056878474 
137.82451526117873, -2.494576073876168, 21.813962117190442, 13.484770624951619, 74.25522350397496, 62.57864168972276 
136.89210400113467, -2.4762713147535536, 21.81396593247351, 15.165972109368635, 74.1996136708844, 62.57897329928066 
135.95986446157156, -2.451318984648043, 21.813971088146626, 16.82988960965458, 74.12411382474241, 62.579425195062214 
135.02784897120569, -2.419727107978309, 21.813977540926196, 18.471635503814266, 74.0290224036311, 62.579997101360476 
134.09610945350633, -2.3815058343504454, 21.813985236103235, 20.086644998001336, 73.91470743981353, 62.58068866942325 
133.16469733302492, -2.3366674282766167, 21.8139941076256, 21.670728489149806, 73.7816001236079, 62.581499477788626 
132.23366344277517, -2.285226256797393, 21.814004078197406, 23.220111461190214, 73.63018759990013, 62.582429032689994 
131.30305793285135, -2.2271987750461086, 21.814015059395334, 24.731461512777468, 73.46100526161594, 62.58347676853056 
130.37293018046893, -2.162603509800013, 21.814026951801747, 26.201902785712335, 73.27462879989297, 62.58464204842586 
129.44332870160324, -2.09146104106858, 21.814039645154462, 27.629018634848233, 73.07166625238752, 62.5859241648146 
128.51430106439506, -2.0137939817755477, 21.814053018512947, 29.010843820972735, 72.85275026229698, 62.58732234013589 
127.58589380448487, -1.929626955596267, 21.814066940440718, 30.34584780463287, 72.61853072485688, 62.58883572757293 
126.65815234242682, -1.838986573017523, 21.81408126920366, 31.632910873914277, 72.3696679588261, 62.59046341186156 
125.73112090332671, -1.7419014056914819, 21.814095852984114, 32.8712948679954, 72.1068265009542, 62.59220441016284 
124.80484243883588, -1.6384019591601562, 21.814110530110376, 34.060610184102, 71.83066958416306, 62.59405767299846 
123.87935855162442, -1.5285206440309145, 21.814125129301253, 35.20078060516307, 71.54185432698415, 62.596022085247476 
122.95470942244609, -1.412291745687215, 21.814139469925458, 36.29200728590469, 71.24102763376725, 62.598096467203895 
122.03093373989523, -1.2897513926223023, 21.81415336227545, 37.334733010543495, 70.92882278278545, 62.600279575692475 
121.1080686329462, -1.1609375234865973, 21.81416660785533, 38.32960760564471, 70.60585666255645, 62.60257010524243 
120.18614960635371, -1.0258898529420526, 21.814178999682458, 39.27745517218353, 70.27272760507498, 62.60496668931665 
119.26521047898042, -0.884649836419127, 21.814190322602375, 40.179243601660666, 69.93001375756221, 62.607467901595506 
118.34528332510749, -0.7372606338737336, 21.814200353616588, 41.036056668265466, 69.57827193102841, 62.61007225731312 
117.42639841877168, -0.5837670726430486, 21.814208862222863, 41.84906884506297, 69.21803686363297, 62.61277821464448 
116.50858418116121, -0.42421560950009224, 21.814215610767427, 42.61952287690659, 68.84982083876845, 62.6155841761417 
115.59186713109095, -0.2586542920076859, 21.81422035480882, 43.34871005435931, 68.47411360132904, 62.618488490217814 
114.6762718385675, -0.08713271927260295, 21.814222843492722, 44.03795306837716, 68.0913825201864, 62.621489452675306 
113.76182088144193, 0.09029799779922906, 21.814222819937363, 44.68859128137855, 67.70207295002979, 62.62458530827884 
112.84853480513999, 0.27358527664608745, 21.814220021628987, 45.30196822298848, 67.30660875107729, 62.62777425236902 
111.93643208544704, 0.4626751034927528, 21.814214180826912, 45.87942110477078, 66.90539293046896, 62.63105443251552 
111.02552909431651, 0.6575120739932702, 21.814205024977458, 46.42227214453667, 66.49880837422305, 62.6344239502079 
110.11584006866187, 0.8580394339768057, 21.814192277136446, 46.93182149465464, 66.0872186433562, 62.637880862581454 
109.20737708208159, 1.064199120201377, 21.81417565639956, 47.40934157794168, 65.67096881206258, 62.641423184176354 
108.30015001946035, 1.2759318010216525, 21.81415487834, 47.85607264736525, 65.25038632968823, 62.64504888872763 
107.39416655438052, 1.493176916879572, 21.81412965545296, 48.273219400503734, 64.8257818916171, 62.648755910984086 
106.48943212927166, 1.7158727205287458, 21.81409969760624, 48.66194849540886, 64.39745030712389, 62.65254214855392 
105.58594993821883, 1.9439563169063512, 21.814064712496414, 49.023386830382556, 63.96567135476899, 62.65640546377442 
104.68372091234491, 2.177363702568804, 21.814024406110054, 49.358620465654276, 63.530710618052346, 62.66034368560403 
103.78274370767625, 2.416029804610779, 21.81397848318924, 49.668694079636595, 63.092820295841534, 62.66435461153457 
102.88301469539674, 2.6598885189898835, 21.813926647700892, 49.95461086610753, 62.65223998358546, 62.66843600952051 
101.98452795439151, 2.9088727481827554, 21.813868603309277, 50.2173327911871, 62.20919742255722, 62.67258561992428 
101.08727526597656, 3.1629144381016543, 21.81380405385095, 50.45778114028874, 61.76390921537369, 62.6768011574743 
100.19124611070986, 3.421944614203794, 21.81373270381172, 50.6768372953427, 61.3165815068487, 62.681080313234204 
99.2964276671751, 3.6858934167294213, 21.813654258804785, 50.87534369154917, 60.86741062988041, 62.68542075658049 
98.40280481262907, 3.9546901350078594, 21.81356842604963, 51.05410491079439, 60.41658371657955, 62.68982013718672 
97.51036012540118, 4.228263240774545, 21.813474914850907, 51.21388887573791, 59.96427927523438, 62.694276087011865 
96.61907388893458, 4.506540420445169, 21.813373437076663, 51.35542811454075, 59.51066773400339, 62.69878622229062 
95.72892409735617, 4.789448606297212, 21.81326370763549, 51.47942107134866, 59.05591195244167, 62.703348145523535 
94.83988646246556, 5.076914006511839, 21.81314544495168, 51.58653344205846, 58.600167702120565, 62.707959447464596 
93.95193442203171, 5.368862134033345, 21.813018371437995, 51.67739951866567, 58.14358411769895, 62.71261770910442 
93.06503914928918, 5.665217834206176, 21.81288221396533, 51.752623528697434, 57.68630411986563, 62.717320503646675 
92.17916956352656, 5.965905311153159, 21.8127367043287, 51.812780958947464, 57.228464811598315, 62.722065398475735 
91.2942923416621, 6.2708481528619, 21.81258157970886, 51.85841985501694, 56.77019784918608, 62.72684995711338 
90.41037193070498, 6.57996935494914, 21.812416583129053, 51.890062090083305, 56.31162978944448, 62.73167174116267 
89.52737056100226, 6.893191343076478, 21.812241463906275, 51.90820459792076, 55.85288241451893, 62.736528312236935 
88.64524826017642, 7.21043599399334, 21.812055978096332, 51.913320566528114, 55.3940730356286, 62.74141723387178 
87.7639628676607, 7.531624655186412, 21.81185988893235, 51.90586058981935, 54.935314777050856, 62.74633607341828 
86.88347004974473, 7.856678163117172, 21.811652967255917, 51.88625377573689, 54.476716841590125, 62.75128240391547 
86.00372331504607, 8.185516860032248, 21.811434991940423, 51.854908809885295, 54.01838475871413, 62.75625380594025 
85.12467403032882, 8.518060609333393, 21.81120575030605, 51.812214974380936, 53.560420616479675, 62.76124786943299 
84.24627143659434, 8.85422880949687, 21.810965038525808, 51.75854312209274, 53.10292327830701, 62.76626219549679 
83.36846266537503, 9.193940406533999, 21.810712662022073, 51.69424660682965, 52.64598858560128, 62.771294398169054 
82.49119275516712, 9.537113904986866, 21.81044843585324, 51.61966217032849, 52.189709547158465, 62.77634210616334 
81.61440466794294, 9.883667377455748, 21.81017218508976, 51.53511078712442, 51.73417651623506, 62.78140296458021 
80.73803930569098, 10.233518472656044, 21.809883745179253, 51.44089846855844, 51.2794773561045, 62.78647463658523 
79.86203552693514, 10.586584422005368, 21.809582962300112, 51.33731702730054, 50.825697594869006, 62.79155480505269 
78.98633016319341, 10.942782044742245, 21.809269693703193, 51.22464480385298, 50.372920570244766, 62.79664117417357 
78.1108580353398, 11.302027751580582, 21.808943808041064, 51.10314735655229, 49.92122756498911, 62.80173147102639 
77.2355519698422, 11.664237546904744, 21.808605185684417, 50.97307811661692, 49.47069793359286, 62.806823447109394 
76.3603428148531, 12.029327029512487, 21.808253719025213, 50.834679009794826, 49.0214092208175, 62.811914879833076 
75.48515945613873, 12.39721139191367, 21.807889312766136, 50.68818104615686, 48.57343727261596, 62.81700357397138 
74.60992883283791, 12.767805418194655, 21.80751188419603, 50.533804879559135, 48.126856339938485, 62.82208736307063 
73.734575953049, 13.141023480459394, 21.807121363450776, 50.37176133826598, 47.68173917588822, 62.827164110815126 
72.85902390925143, 13.516779533859324, 21.806717693759495, 50.2022519281851, 47.238157126659125, 62.83223171234797 
71.98319389357441, 13.894987110225868, 21.806300831675504, 50.02546931012046, 46.79618021665674, 62.837288095546356 
71.10700521293428, 14.275559310319924, 21.80587074729186, 49.84159775239957, 46.35587722817422, 62.84233122225032 
70.23037530406864, 14.658408794714639, 21.805427424441103, 49.6508135601783, 45.91731577596841, 62.84735908944388 
69.35321974850423, 15.043447773328218, 21.804970860878974, 49.4532854826729, 45.48056237705667, 62.85236973038789 
