# MEX_intpoint_lon [deg], MEX_intpoint_lat [deg], MEX_intpoint_angle [deg], TGO_intpoint_lon [deg], TGO_intpoint_lat [deg], TGO_intpoint_angle [deg] 
-139.3177142425806, 19.59157824996963, 21.774270713513264, -27.436575290307676, 40.90449036290523, 62.90175488935647 
-140.20837840768633, 19.189133301897815, 21.774872166723643, -27.705776245125207, 41.3150030028303, 62.897076631925955 
-141.0974175679473, 18.78782364336706, 21.77546148573066, -27.969803300973936, 41.72804283604464, 62.892361983298684 
-141.98493581082775, 18.38774329675963, 21.776038505651563, -28.228552024318617, 42.14355301447694, 62.88761242561974 
-142.87103557477394, 17.988985623871237, 21.776603076305175, -28.481913869128572, 42.56147614866033, 62.882829485999885 
-143.75581762897596, 17.591643349937605, 21.777155062226917, -28.729775949424734, 42.9817542770841, 62.87801473598477 
-144.63938105416108, 17.195808586618792, 21.77769434266594, -28.972020800120756, 43.40432883317781, 62.873169790970955 
-145.5218232242716, 16.80157285390697, 21.778220811564758, -29.208526125451307, 43.82914060979323, 62.86829630956808 
-146.40323978889214, 16.409027100925076, 21.77873437752111, -29.43916453423725, 44.25612972104038, 62.863395992908586 
-147.28372465630136, 16.018261725586303, 21.779234963732286, -29.663803261190058, 44.685235561321356, 62.85847058390395 
-148.16336997703453, 15.629366593085242, 21.779722507922127, -29.88230387341029, 45.11639676139443, 62.85352186644936 
-149.0422661278523, 15.242431053194002, 21.780196962250606, -30.094521961182522, 45.54955114128668, 62.84855166457584 
-149.92050169602217, 14.857543956337613, 21.780658293206393, -30.300306812116833, 45.984635659859755, 62.843561841551185 
-150.79816346382768, 14.474793668424528, 21.78110648148232, -30.49950106763057, 46.42158636081735, 62.83855429893012 
-151.67533639322988, 14.094268084409698, 21.78154152183421, -30.691940360706166, 46.86033831492629, 62.83353097555399 
-152.55210361061552, 13.71605464056847, 21.78196342292305, -30.87745293380139, 47.300825558205034, 62.82849384650097 
-153.428546391573, 13.340240325461473, 21.78237220714088, -31.055859235725737, 47.74298102581361, 62.82344492198735 
-154.30474414564839, 12.96691168957113, 21.782767910420656, -31.22697149623412, 48.18673648135804, 62.81838624622063 
-155.18077440103946, 12.596154853592404, 21.78315058203019, -31.390593277024127, 48.632022441298744, 62.813319896205584 
-156.05671278919553, 12.228055515360813, 21.78352028435072, -31.54651899775812, 49.078768094128854, 62.80824798050356 
-156.932633029298, 11.86269895540268, 21.78387709264026, -31.69453343566662, 49.526901213960194, 62.80317263794674 
-157.80860691260384, 11.500170041093122, 21.784221094781987, -31.834411197225275, 49.97634806812743, 62.79809603630758 
-158.68470428664244, 11.14055322940909, 21.78455239101823, -31.96591616033569, 50.42703331838855, 62.79302037092515 
-159.56099303926317, 10.783932568265588, 21.78487109367025, -32.088800885381744, 50.87887991526778, 62.78794786328906 
-160.43753908253734, 10.430391696424818, 21.78517732684423, -32.20280599347945, 51.331808985049875, 62.78288075958238 
-161.31440633652682, 10.080013841969294, 21.785471226123917, -32.307659510191556, 51.785739708897424, 62.777821329184455 
-162.19165671293678, 9.73288181933124, 21.785752938250305, -32.40307617294115, 52.24058919352081, 62.77277186313538 
-163.06935009867715, 9.389078024872408, 21.786022620788774, -32.48875670033401, 52.69627233278643, 62.767734672563016 
-163.94754433936427, 9.0486844310097, 21.786280441784136, -32.564387021590306, 53.15270165960169, 62.7627120870742 
-164.8262952227995, 8.711782578883987, 21.786526579404025, -32.62963746429945, 53.60978718736504, 62.75770645311139 
-165.70565646246854, 8.37845356957089, 21.786761221571236, -32.68416189874861, 54.06743624021559, 62.75272013227635 
-166.58567968111083, 8.048778053834617, 21.786984565585268, -32.72759683714635, 54.52555327126035, 62.7477554996225 
-167.46641439441342, 7.722836220427395, 21.787196817733793, -32.75956048617225, 54.98403966789756, 62.742814941917196 
-168.34790799489085, 7.400707782939619, 21.78739819289443, -32.77965175144196, 55.442793543291465, 62.737900855875985 
-169.2302057360156, 7.082471965207581, 21.787588914127355, -32.787449192695846, 55.90170951298851, 62.73301564637008 
-170.11335071667162, 6.768207485288169, 21.787769212259438, -32.782509928808906, 56.36067845559676, 62.72816172460918 
-170.9973838660053, 6.457992538012203, 21.78793932546022, -32.76436849209898, 56.819587256380764, 62.72334150630107 
-171.88234392875552, 6.151904776130746, 21.78809949881042, -32.732535631892304, 57.27831853255206, 62.71855740979019 
-172.76826745114664, 5.850021290071135, 21.788249983863583, -32.68649706791588, 57.73675033896473, 62.71381185417649 
-173.65518876743477, 5.552418586322196, 21.788391038201297, -32.62571219484697, 58.19475585285437, 62.709107257416996 
-174.54313998719812, 5.25917256447131, 21.78852292498272, -32.54961274028989, 58.65220303619031, 62.704446034411724 
-175.43215098346985, 4.970358492918264, 21.788645912488853, -32.457601379605684, 59.10895427414853, 62.69983059507596 
-176.32224938181113, 4.686050983294586, 21.788760273662326, -32.34905031242645, 59.56486598815488, 62.69526334240093 
-177.21346055042716, 4.406323963619565, 21.788866285643138, -32.223299807391705, 60.01978822190384, 62.69074667050492 
-178.1058075914311, 4.131250650227735, 21.788964229301044, -32.07965672369951, 60.47356419872631, 62.68628296267676 
-178.9993113333618, 3.8609035185056597, 21.789054388765212, -31.917393020530014, 60.926029848669195, 62.68187458941407 
-179.89399032506375, 3.5953542724794, 21.789137050951712, -31.735744268341588, 61.37701330366439, 62.6775239064579 
179.21013916896143, 3.3346738132972265, 21.789212505089502, -31.533908179536247, 61.82633435921402, 62.67323325282647 
178.31306317162245, 3.07893220665566, 21.789281042245467, -31.311043180125882, 62.27380390111167, 62.66900494884971 
177.4147699946144, 2.8281986492205093, 21.789342954849236, -31.066267048899412, 62.719223295865895, 62.66484129420705 
176.51525023799374, 2.582541434097782, 21.78939853621834, -30.79865565629303, 63.16238374370931, 62.66074456597043 
175.61449678784416, 2.342027915413149, 21.78944808008427, -30.50724184181271, 63.6030655933762, 62.656717016654994 
174.71250481192507, 2.106724472061819, 21.78949188012014, -30.191014476559786, 64.04103761823754, 62.65276087227948 
173.80927175319837, 1.8766964706943405, 21.78953022947064, -29.848917766282185, 64.47605625391354, 62.64887833043855 
172.90479732112996, 1.6520082280070187, 21.789563420284672, -29.479850860520543, 64.90786479816904, 62.64507155838935 
171.99908348066768, 1.4327229724091575, 21.7895917432515, -29.082667844933788, 65.33619257476629, 62.64134269115464 
171.09213443879884, 1.2189028051424258, 21.789615487140942, -28.656178206837662, 65.76075406403577, 62.63769382964421 
170.18395662859663, 1.010608660930734, 21.789634938348165, -28.199147878393777, 66.18124800427053, 62.63412703879762 
169.2745586906695, 0.8079002682421063, 21.78965038044374, -27.71030097770671, 66.5973564696917, 62.6306443457496 
168.36395145193177, 0.6108361092468646, 21.789662093729536, -27.18832238518518, 67.00874393272107, 62.62724773802095 
167.45214790162206, 0.41947337955884595, 21.78967035480102, -26.631861310640073, 67.41505632067678, 62.623939161736814 
166.53916316450102, 0.23386794784935044, 21.78967543611656, -26.039536025294055, 67.81592007982702, 62.620720519874574 
165.6250144711685, 0.05407431542514878, 21.789677605574266, -25.409939951508505, 68.2109412630382, 62.617593670543364 
164.7097211254471, -0.11985442413556541, 21.789677126096937, -24.741649320655654, 68.59970466107305, 62.61456042529762 
163.7933044687885, -0.28786662519389544, 21.78967425522572, -24.033232624889955, 68.98177300195194, 62.611622547486355 
162.8757878416674, -0.44991213001068614, 21.78966924472291, -23.28326209989623, 69.3566862476857, 62.60878175064056 
161.95719654193655, -0.6059423083586196, 21.789662340184485, -22.490327480826462, 69.72396102308582, 62.606039696900496 
161.03755778012794, -0.7559100966868469, 21.78965378066288, -21.65305226985739, 70.08309021717815, 62.603397995485054 
160.11690063169374, -0.8997700367385496, 21.7896437983005, -20.77011273783135, 70.43354280384763, 62.60085820120476 
159.19525598619165, -1.0374783135216425, 21.7896326179744, -19.840259850475864, 70.77476393450634, 62.59842181302096 
158.27265649343093, -1.1689927925328965, 21.789620456952708, -18.8623442575089, 71.10617536148918, 62.59609027265214 
157.3491365066049, -1.2942730561362115, 21.789607524563117, -17.835344406091657, 71.4271762561152, 62.593864963230054 
156.42473202244872, -1.4132804389967415, 21.789594021873977, -16.75839773430469, 71.73714448935668, 62.591747208006595 
155.4994806184711, -1.5259780624737367, 21.78958014138846, -15.630834761992364, 72.0354384451489, 62.58973826911389 
154.57342138732105, -1.632330867876582, 21.78956606675193, -14.452215723246708, 72.32139943575115, 62.587839346378246 
153.64659486836175, -1.7323056484906894, 21.789551972473358, -13.222369177107456, 72.59435478433247, 62.58605157619056 
152.7190429765351, -1.8258710802820632, 21.78953802366061, -11.941431794252269, 72.85362163116737, 62.58437603043369 
151.79080892861137, -1.9129977511924632, 21.78952437577052, -10.609888255549855, 73.09851150558963, 62.58281371546907 
150.86193716693046, -1.993658188939946, 21.789511174373594, -9.228609926853604, 73.32833568542674, 62.581365571182985 
149.93247328075006, -2.0678268872435135, 21.789498554933925, -7.798890712947493, 73.54241133859942, 62.58003247009462 
149.00246392532858, -2.1354803303941585, 21.78948664260462, -6.322478267811889, 73.74006840797024, 62.578815216526635 
148.0719567388789, -2.1965970160991692, 21.789475552038823, -4.801598579067691, 73.92065716107155, 62.57771454583917 
147.14100025753908, -2.251157476531004, 21.789465387216786, -3.2389718849875386, 74.0835562825505, 62.57673112372879 
146.20964382851545, -2.299144297517196, 21.789456241289127, -1.63781795520198, 74.22818134143353, 62.575865545593025 
145.27793752156117, -2.3405421358126905, 21.78944819643638, -0.0018489975514153249, 74.35399342089622, 62.57511833596125 
144.34593203896074, -2.37533773440202, 21.789441323745333, 1.6647511418746392, 74.46050765908106, 62.57448994799292 
143.41367862419918, -2.403519935783994, 21.78943568310193, 3.3573622431014516, 74.54730141995037, 62.57398076304358 
142.48122896949846, -2.4250796931980636, 21.789431323101162, 5.070977476232365, 74.61402179738857, 62.573591090299615 
141.5486351224115, -2.4400100797574584, 21.789428280973965, 6.800266877162454, 74.66039215726187, 62.573321166481584 
140.6159493916664, -2.4483062954607333, 21.78942658253117, 8.53965289011833, 74.68621744306826, 62.57317115561731 
139.68322425245833, -2.449965672059847, 21.789426242124723, 10.283395521345364, 74.69138801151257, 62.57314114888444 
138.75051225138853, -2.4449876757696, 21.789427262626106, 12.02568396780185, 74.67588182303743, 62.573231164522845 
137.8178659112521, -2.433373907809966, 21.789429635421982, 13.760731109986427, 74.63976488515286, 62.573441147817164 
136.8853376358759, -2.4151281027795437, 21.789433340427177, 15.482867044003186, 74.58318992769341, 62.57377097114947 
135.95297961520913, -2.390256124865351, 21.789438346114895, 17.18662790003344, 74.50639337217274, 62.574220434121436 
135.02084373086637, -2.3587659619006653, 21.789444609564086, 18.866836543948043, 74.40969073524546, 62.574789263746915 
134.0889814623225, -2.3206677172895565, 21.78945207652408, 20.51867234480243, 74.29347067264692, 62.57547711471353 
133.15744379395377, -2.2759735998231823, 21.789460681496195, 22.1377279468218, 74.1581879200391, 62.576283569713816 
132.22628112311745, -2.2246979114195056, 21.78947034783234, 23.720051828939976, 74.0043554180904, 62.57720813984484 
131.29554316945584, -2.166857032824355, 21.789480987850407, 25.262176284400898, 73.83253592015888, 62.57825026507626 
130.3652788856063, -2.1024694073179355, 21.789492502966407, 26.761131232818858, 73.64333337344333, 62.57940931478571 
129.4355363694909, -2.031555522476701, 21.789504783843025, 28.214444930364845, 73.43738434130694, 62.58068458836128 
128.50636277835352, -1.9541378900463924, 21.789517710554513, 29.62013313529628, 73.21534969958483, 62.582075315869815 
127.57780424470324, -1.870241023987128, 21.789531152767662, 30.9766786031238, 72.97790679738007, 62.5835806587907 
126.64990579431502, -1.7798914167568582, 21.789544969938614, 32.28300293503619, 72.72574222732015, 62.58519971081356 
125.7227112664287, -1.6831175139041177, 21.789559011525252, 33.53843280604075, 72.45954530512637, 62.586931498699144 
124.79626323627858, -1.579949687045445, 21.789573117214896, 34.742662485671715, 72.18000231648125, 62.588774983202384 
123.87060294007486, -1.4704202053071536, 21.789587117166935, 35.895714367514465, 71.88779155251723, 62.590729060055956 
122.94577020254836, -1.354563205314575, 21.789600832270246, 36.99789897662523, 71.58357912488566, 62.59279256101358 
122.02180336715853, -1.2324146598156749, 21.789614074414846, 38.049775654600744, 71.26801552766184, 62.594964254951265 
121.09873922905385, -1.1040123450285226, 21.78962664677757, 39.05211485329323, 70.94173289608688, 62.59724284902539 
120.17661297086312, -0.9693958068050249, 21.789638344121336, 40.00586271648866, 70.60534290073929, 62.59962698988576 
119.25545810138297, -0.8286063257054039, 21.78964895310756, 40.91210840492417, 70.25943520933468, 62.60211526494237 
118.33530639721778, -0.6816868810797834, 21.789658252621468, 41.77205442943487, 69.90457644603765, 62.6047062036842 
117.41618784741469, -0.5286821142546123, 21.789666014109628, 42.58699010147139, 69.54130957901188, 62.60739827904813 
116.49813060112693, -0.3696382909228235, 21.7896720019295, 43.3582680885528, 69.17015367007535, 62.61018990883637 
115.5811609183255, -0.20460326283722868, 21.789675973710374, 44.08728397141223, 68.79160392502257, 62.613079457180724 
114.66530312357037, -0.033626428906929136, 21.789677680725312, 44.775458635630265, 68.406131988811, 62.6160652360516 
113.75057956283986, 0.1432413042034675, 21.789676868273553, 45.42422328902163, 68.0141864358916, 62.61914550680977 
112.83701056340794, 0.32594756187242846, 21.789673276072886, 46.03500687257749, 67.6161934121309, 62.62231848179961 
111.92461439674807, 0.5144385416192885, 21.789666638661483, 46.60922562333557, 67.21255739075357, 62.625582325980616 
111.013407244433, 0.7086590534036922, 21.789656685808733, 47.148274548602465, 66.80366201035797, 62.628935158596626 
110.10340316699143, 0.9085525600303886, 21.789643142934324, 47.65352057948683, 66.38987096820959, 62.63237505487925 
109.19461407567229, 1.1140612175648874, 21.78962573153531, 48.12629718527027, 65.97152894664592, 62.635900047784645 
108.28704970706104, 1.3251259156671558, 21.78960416962033, 48.56790024680074, 65.54896255451317, 62.639508129760486 
107.38071760048285, 1.5416863177529805, 21.789578172150634, 48.97958500535889, 65.12248126911196, 62.64319725454192 
106.47562307812267, 1.7636809008946133, 21.789547451487138, 49.36256392221076, 64.69237836718428, 62.646965338973445 
105.5717692277831, 1.9910469953752952, 21.78951171784311, 49.71800530253807, 64.25893183606765, 62.65081026485524 
104.66915688819796, 2.223720823814566, 21.789470679741708, 50.0470325550856, 63.82240525832094, 62.65472988081138 
103.76778463681138, 2.46163753978463, 21.789424044477933, 50.35072397534979, 63.383048664935075, 62.658722004177704 
102.86764877992984, 2.7047312658407425, 21.78937151858428, 50.63011295525352, 62.9410993537306, 62.662784422907436 
101.96874334514906, 2.952935130891852, 21.789312808299513, 50.886188535930266, 62.4967826707541, 62.666914897491864 
101.07106007595446, 3.2061813068412266, 21.78924762003999, 51.119896232466665, 62.05031275345824, 62.671111162894334 
100.17458842839179, 3.464401044429687, 21.789175660872818, 51.33213907027313, 61.60189323522408, 62.67537093049494 
99.27931556970084, 3.7275247082180125, 21.789096638990326, 51.52377878224882, 61.15171791138818, 62.679691890044026 
98.38522637880497, 3.9954818106479713, 21.78901026418521, 51.69563712418033, 60.699971367403315, 62.684071711622025 
97.49230344854625, 4.268201045125564, 21.78891624832562, 51.84849727297292, 60.24682957011115, 62.688508047603435 
96.60052708955747, 4.545610318072747, 21.78881430582978, 51.98310527847477, 59.79246042336174, 62.69299853462319 
95.70987533565993, 4.827636779898253, 21.788704154139282, 52.10017154492554, 59.33702428939433, 62.69754079554259 
94.82032395067827, 5.114206854840751, 21.788585514190597, 52.2003723225512, 58.88067447751251, 62.702132441413106 
93.93184643656306, 5.405246269641722, 21.78845811088417, 52.284351193630805, 58.42355770165615, 62.70677107343585 
93.04441404271411, 5.700680081008187, 21.788321673550385, 52.35272054057053, 57.965814508503556, 62.711454284914524 
92.15799577639869, 6.000432701829179, 21.788175936411903, 52.406062986214984, 57.50757967773874, 62.7161796631997 
91.2725584141613, 6.304427926112919, 21.788020639041694, 52.44493279887837, 57.04898259609648, 62.72094479162277 
90.38806651412432, 6.612588952614641, 21.787855526816234, 52.46985725645085, 56.59014760675946, 62.7257472514168 
89.50448242908143, 6.924838407128517, 21.787680351363175, 52.481337965485906, 56.131194335629736, 62.73058462362344 
88.62176632028945, 7.241098363419536, 21.787494871003013, 52.47985213244998, 55.672237995937, 62.73545449098259 
87.73987617186758, 7.5612903627747325, 21.787298851184072, 52.46585378535814, 55.21338967257969, 62.740354439804086 
86.85876780571729, 7.8853354321552125, 21.787092064910308, 52.439774944867324, 54.754756587525435, 62.74528206181885 
85.97839489687983, 8.213154100933814, 21.786874293161336, 52.402026744579096, 54.29644234752594, 62.750234956007795 
85.09870898925354, 8.544666416205118, 21.786645325304175, 52.353000500849106, 53.83854717533012, 62.755210730407086 
84.21965951159699, 8.879791956657632, 21.786404959496053, 52.29306873282753, 53.38116812550812, 62.760207003887366 
83.34119379375022, 9.218449844999691, 21.786153003077878, 52.2225861337875, 52.92439928593015, 62.765221407905614 
82.46325708301032, 9.56055875893329, 21.785889272957778, 52.141890495051044, 52.46833196587723, 62.770251588228184 
81.58579256060341, 9.90603694067203, 21.785613595984255, 52.05130358400889, 52.01305487169622, 62.77529520662293 
80.70874135820179, 10.254802205001265, 21.785325809308357, 51.951131977863795, 51.55865427085096, 62.78034994251922 
79.83204257443847, 10.606771945880705, 21.785025760734534, 51.84166785481563, 51.10521414516243, 62.78541349463417 
78.95563329138025, 10.961863141591165, 21.78471330905956, 51.72318974445958, 50.65281633397653, 62.790483582563745 
78.07944859092376, 11.319992358429376, 21.78438832439924, 51.59596323919352, 50.20154066794509, 62.79555794833716 
77.20342157108786, 11.681075752955792, 21.78405068850226, 51.46024166843134, 49.75146509405853, 62.80063435793344 
76.3274833621798, 12.045029072802519, 21.783700295050924, 51.3162667374019, 49.30266579252122, 62.8057106027586 
75.45156314282163, 12.411767656049372, 21.783337049948326, 51.16426913228271, 48.85521728601932, 62.8107845010825 
74.57558815582813, 12.781206429177828, 21.78296087159152, 51.004469093374325, 48.40919254189017, 62.81585389943382 
73.69948372393573, 13.153259903614083, 21.782571691130364, 50.837076957971384, 47.96466306766515, 62.820916673952176 
72.82317326538895, 13.527842170873116, 21.782169452711667, 50.662293674530105, 47.52169900042408, 62.825970731696685 
71.94657830939738, 13.9048668963178, 21.781754113708335, 50.480311289671015, 47.08036919036602, 62.83101401190893 
71.06961851148534, 14.28424731154744, 21.78132564493311, 50.29131340949291, 46.64074127897258, 62.836044487230716 
70.19221166876203, 14.665896205432107, 21.780884030836692, 50.095475636609045, 46.2028817721111, 62.84106016487446 
