# MEX_intpoint_lon [deg], MEX_intpoint_lat [deg], MEX_intpoint_angle [deg], TGO_intpoint_lon [deg], TGO_intpoint_lat [deg], TGO_intpoint_angle [deg] 
-139.18079254279172, 19.559454247729732, 21.68008563952688, -27.526752781701706, 42.04085032903561, 62.877279136376714 
-140.0745662874152, 19.162036272454177, 21.68067602386258, -27.81282026730111, 42.447450617010425, 62.872630791867685 
-140.96671499949943, 18.76572546330551, 21.68125462455039, -28.093972358766454, 42.85663322190564, 62.8679481271008 
-141.85734068632547, 18.370615382473083, 21.681821279547027, -28.370108527844778, 43.26834444649082, 62.86323261246755 
-142.74654377046824, 17.976798933838563, 21.682375841085513, -28.641124191931553, 43.68253012085338, 62.85848576083417 
-143.63442306755917, 17.584368385756914, 21.682918175690396, -28.90691048295951, 44.09913557556268, 62.85370912701785 
-144.52107576516082, 17.19341539285356, 21.68344816417554, -29.167354003733355, 44.51810561264902, 62.84890430721295 
-145.4065974026091, 16.80403101680236, 21.68396570162484, -29.422336570900313, 44.93938447426875, 62.84407293836591 
-146.29108185169025, 16.416305746050515, 21.684470697355735, -29.67173494369033, 45.36291580891748, 62.83921669750062 
-147.1746212980297, 16.030329514459172, 21.684963074865774, -29.915420537499305, 45.788642635041036, 62.834337300993276 
-148.05730622308107, 15.646191718829643, 21.68544277176218, -30.153259121325224, 46.216507301882025, 62.829436503798036 
-148.93922538661113, 15.263981235287517, 21.685909739674674, -30.38511049799839, 46.646451447386035, 62.82451609862342 
-149.82046580958888, 14.883786434498038, 21.686363944151594, -30.61082816607437, 47.07841595297658, 62.81957791505994 
-150.70111275739407, 14.505695195687807, 21.686805364539595, -30.830258962181535, 47.512340894992874, 62.81462381865983 
-151.58124972326962, 14.129794919449546, 21.687233993847045, -31.04324268253244, 47.94816549256565, 62.80965570996912 
-152.46095841195276, 13.756172539307588, 21.687649838591305, -31.249611682222017, 48.38582805168886, 62.80467552351271 
-153.34031872342564, 13.384914532023561, 21.688052918630213, -31.449190450842995, 48.82526590522324, 62.79968522673339 
-154.21940873673736, 13.016106926622532, 21.688443266977888, -31.641795162852564, 49.2664153485462, 62.794686818885495 
-155.098304693854, 12.64983531212179, 21.688820929605324, -31.827233201021485, 49.70921157053747, 62.78968232988366 
-155.97708098350444, 12.286184843944959, 21.689185965225725, -32.00530265118978, 50.15358857956404, 62.78467381910791 
-156.855810124995, 11.925240249006126, 21.68953844506531, -32.17579176644074, 50.59947912409831, 62.77966337416599 
-157.7345627519744, 11.56708582944934, 21.689878452619492, -32.33847839868828, 51.04681460757275, 62.77465310961369 
-158.6134075961374, 11.211805465030608, 21.69020608339509, -32.49312939555057, 51.495524997039375, 62.769645165634024 
-159.49241147086292, 10.859482614130497, 21.690521444638676, -32.63949996025911, 51.94553872516608, 62.76464170667706 
-160.37163925478941, 10.51020031338705, 21.69082465505169, -32.77733297222374, 52.39678258506064, 62.759644920060715 
-161.25115387533592, 10.164041175940055, 21.691115844492412, -32.90635826574498, 52.84918161736974, 62.75465701453398 
-162.13101629218542, 9.821087388279064, 21.691395153665475, -33.02629186423607, 53.30265898905267, 62.749680218804066 
-163.01128548075232, 9.4814207056895, 21.691662733799106, -33.136835167188764, 53.75713586317756, 62.74471678002826 
-163.89201841566296, 9.145122446292172, 21.691918746310687, -33.23767408699439, 54.212531259031756, 62.73976896227223 
-164.7732700542827, 8.81227348367394, 21.692163362461045, -33.32847813261601, 54.66876190177733, 62.734839044935896 
-165.65509332033153, 8.48295423810835, 21.692396762997816, -33.40889943700367, 55.12574206081705, 62.729929321148354 
-166.53753908763278, 8.157244666367562, 21.692619137788554, -33.478571725057556, 55.58338337596458, 62.72504209613344 
-167.42065616404804, 7.835224250128272, 21.69283068544389, -33.53710921888071, 56.041594670436965, 62.7201796855471 
-168.30449127565416, 7.516971982976893, 21.693031612931367, -33.584105477028686, 56.50028174960403, 62.71534441378877 
-169.18908905122544, 7.202566356021044, 21.693222135180417, -33.6191321644717, 56.959347184341546, 62.71053861228749 
-170.07449200708757, 6.892085342116854, 21.693402474678912, -33.641737750043916, 57.41869007774017, 62.70576461776522 
-170.96074053241557, 6.585606378723815, 21.69357286106203, -33.65144612827981, 57.878205813821225, 62.701024770478476 
-171.84787287505122, 6.2832063494016035, 21.69373353069371, -33.64775516274752, 58.337785786803025, 62.69632141244041 
-172.73592512792158, 5.984961563965559, 21.69388472624151, -33.63013514830263, 58.79731710934908, 62.69165688562456 
-173.62493121614193, 5.690947737320241, 21.69402669624522, -33.59802719013074, 59.25668229811031, 62.68703353015304 
-174.51492288489186, 5.401239966993624, 21.694159694679907, -33.55084149805193, 59.715758934750255, 62.68245368246964 
-175.40592968815537, 5.115912709396593, 21.69428398051393, -33.48795559536356, 60.17441930051564, 62.677919673501066 
-176.2979789784194, 4.835039754836115, 21.694399817262504, -33.40871244254277, 60.63252998228512, 62.67343382680708 
-177.191095897428, 4.558694201312983, 21.69450747253743, -33.312418477469436, 61.089951447900724, 62.66899845672259 
-178.08530336809073, 4.2869484271382525, 21.694607217593514, -33.19834157552782, 61.546537588460524, 62.66461586649248 
-178.9806220876468, 4.019874062405713, 21.69469932687232, -33.06570893507352, 62.00213522513253, 62.660288346401984 
-179.8770705221873, 3.757541959360942, 21.694784077543858, -32.91370489640078, 62.456583577943526, 62.65601817190444 
179.22533509736152, 3.500022161710637, 21.694861749046815, -32.74146870561567, 62.909713693909126, 62.65180760174819 
178.32658077768875, 3.247383872919319, 21.69493262262781, -32.548092238833654, 63.36134783181139, 62.64765887610488 
177.42665476388063, 2.999695423543899, 21.6949969808805, -32.33261770701489, 63.81129880090779, 62.64357421470132 
176.5255475384287, 2.757024237659642, 21.695055107284933, -32.09403536768669, 64.25936925088618, 62.63955581495664 
175.623251818362, 2.519436798434812, 21.695107285747888, -31.831281276963693, 64.70535091047734, 62.63560585012723 
174.7197625504025, 2.2869986129141098, 21.695153800144656, -31.54323512386521, 65.14902377232494, 62.631726467461114 
173.81507690404405, 2.059774176074768, 21.6951949338631, -31.228718199177024, 65.59015522201445, 62.627919786364345 
172.90919426245807, 1.8378269342219427, 21.695230969350305, -30.88649156325434, 66.02849910961078, 62.62418789658118 
172.0021162111332, 1.621219247793499, 21.695262187662653, -30.515254491481265, 66.46379476268605, 62.62053285639011 
171.093846524158, 1.410012353647239, 21.695288868019794, -30.11364329285454, 66.89576594067813, 62.61695669081805 
170.18439114806208, 1.2042663269064222, 21.695311287363094, -29.68023061660816, 67.32411973156341, 62.61346138987484 
169.27375818313388, 1.0040400424425409, 21.69532971991917, -29.2135253841709, 67.74854539331112, 62.61004890680966 
168.36195786214094, 0.8093911360767462, 21.695344436769133, -28.711973509222865, 68.16871314448954, 62.606721156392005 
167.44900252638203, 0.6203759655838672, 21.69535570542399, -28.173959597255017, 68.58427291079255, 62.6034800132189 
166.53490659900928, 0.4370495715853799, 21.695363789406866, -27.597809847744454, 68.9948530372417, 62.60032731005055 
165.61968655556342, 0.25946563841968573, 21.695368947842557, -26.981796416499193, 69.40005897949256, 62.59726483617639 
164.7033608916748, 0.08767645507994691, 21.695371435054916, -26.32414353222544, 69.79947199213252, 62.59429433581345 
163.78595008788952, -0.07826712368849932, 21.695371500172687, -25.62303569878068, 70.1926478372031, 62.59141750653919 
162.86747657158875, -0.23831571603795143, 21.69536938674425, -24.87662835113888, 70.57911554249911, 62.58863599776056 
161.94796467597908, -0.39242145132090156, 21.695365332361753, -24.08306136625099, 70.95837624655427, 62.58595140922101 
161.0274405961399, -0.5405380079502616, 21.695359568295256, -23.240475856198334, 71.32990217564098, 62.58336528954799 
160.10593234212462, -0.6826206507213886, 21.69535231913715, -22.347034685591836, 71.69313580754714, 62.58087913484186 
159.18346968912186, -0.8186262675002445, 21.695343802457614, -21.400947152016236, 72.04748928720755, 62.578494387308496 
158.26008412469355, -0.9485134051818688, 21.69533422847123, -20.400498239982035, 72.39234417019088, 62.576212433937435 
157.33580879311677, -1.0722423048241128, 21.695323799715535, -19.344082796473455, 72.7270515811291, 62.57403460522669 
156.4106784368677, -1.1897749358622411, 21.69531271074164, -18.230244869811184, 73.0509328847643, 62.57196217395653 
155.4847293352962, -1.301075029311437, 21.69530114781754, -17.057722292706135, 73.3632809764485, 62.56999635401313 
154.5579992405504, -1.4061081098657424, 21.695289288644357, -15.82549636510988, 73.66336230545372, 62.56813829926414 
153.6305273108221, -1.5048415268039714, 21.695277302085987, -14.532846194899024, 73.95041974680989, 62.56638910248734 
152.70235404099384, -1.5972444836154365, 21.69526534791253, -13.179406880950307, 74.2236764338062, 62.56474979435374 
151.77352119077966, -1.6832880662611962, 21.695253576557665, -11.765230277136428, 74.4823406517986, 62.56322134246657 
150.84407171046115, -1.7629452699893924, 21.695242128890552, -10.290846570612102, 74.725611872584, 62.5618046504575 
149.91404966433208, -1.836191024626852, 21.695231136002324, -8.75732436993259, 74.95268797559312, 62.56050055714081 
148.9835001519727, -1.9030022182728392, 21.69522071900763, -7.166326469796937, 75.16277365636579, 62.55930983572727 
148.05246922748566, -1.963357719325019, 21.69521098886138, -5.520157997074778, 75.35508996406512, 62.558233193098125 
147.1210038168341, -2.0172383967720373, 21.695202046190985, -3.8218033183142204, 75.52888483946376, 62.55727126914071 
146.18915163343036, -2.0646271386919697, 21.6951939811443, -2.074947980674361, 75.68344444603703, 62.5564246361461 
145.25696109213186, -2.105508868900918, 21.69518687325348, -0.28398214195501914, 75.81810500471339, 62.55569379826981 
144.32448122180836, -2.1398705617012026, 21.69518079131492, 1.5460175198604038, 75.9322647646155, 62.55507919105631 
143.39176157665034, -2.1677012546843497, 21.695175793285475, 3.409329514984052, 76.02539567641952, 62.554581181027885 
142.45885214639475, -2.188992059549674, 21.695171926194977, 5.2996536969135075, 76.09705429096815, 62.55420006533815 
141.5258032656491, -2.2037361709052297, 21.69516922607536, 7.210201145349521, 76.14689139194284, 62.55393607149147 
140.5926655224988, -2.211928873024053, 21.69516771790636, 9.133805365178928, 76.17465989389866, 62.553789357127535 
139.65948966658652, -2.213567544534899, 21.695167415577803, 11.063050729494284, 76.18022059824872, 62.55376000987236 
138.72632651685402, -2.208651661032882, 21.69516832186869, 12.990412664516404, 76.16354549759866, 62.553848047255286 
137.79322686913932, -2.1971827956020187, 21.695170428443035, 14.908403059136877, 76.12471844598083, 62.55405341669239 
136.8602414038221, -2.1791646172480266, 21.695173715862403, 16.809713919816048, 76.06393315756642, 62.55437599553636 
135.92742059371037, -2.1546028872462273, 21.695178153615217, 18.687352447417947, 75.98148864518187, 62.554815591192394 
134.99481461236005, -2.12350545341583, 21.695183700162747, 20.534761464304463, 75.87778234769038, 62.555371941300415 
134.06247324301728, -2.0858822423383585, 21.695190303001763, 22.345920363579182, 75.75330130897461, 62.55604471398334 
133.13044578837042, -2.041745249544097, 21.695197898743675, 24.115423322269972, 75.60861185139933, 62.556833508160416 
132.19878098129496, -1.9911085276967788, 21.695206413210226, 25.838533220964145, 75.44434822849617, 62.557737853926234 
131.26752689676948, -1.9339881728127553, 21.69521576154539, 27.511211352602377, 75.2612007453772, 62.55875721299404 
130.3367308651364, -1.8704023085566057, 21.69522584834351, 29.130124424641632, 75.05990380552305, 62.559890979203246 
129.4064393868743, -1.8003710686609995, 21.695236567793433, 30.69263145521976, 74.84122428660483, 62.56113847909041 
128.4766980490422, -1.7239165775238718, 21.69524780383844, 32.19675388675631, 74.60595057489556, 62.56249897252259 
127.54755144354826, -1.6410629290412564, 21.695259430351783, 33.641132593944505, 74.35488250667233, 62.563971653392635 
126.6190430873883, -1.551836163738952, 21.69527131132755, 35.02497549203864, 74.08882238379103, 62.56555565037573 
125.69121534498906, -1.456264244270849, 21.695283301086707, 36.34799922505056, 73.80856715553662, 62.56725002774494 
124.76410935278399, -1.3543770293559156, 21.69529524449796, 37.61036801063149, 73.51490179406666, 62.569053786246535 
123.83776494613835, -1.24620624622999, 21.695306977213097, 38.81263221484266, 73.20859383845469, 62.57096586403254 
122.91222058873083, -1.1317854616918857, 21.695318325916656, 39.95566869050981, 72.8903890430339, 62.572985137649674 
121.98751330448908, -1.011150051826878, 21.69532910858944, 41.040624387136354, 72.56100803873515, 62.575110423083736 
121.06367861216516, -0.8843371704932141, 21.69533913478562, 42.06886426232916, 72.22114389991563, 62.57734047685769 
120.14075046262704, -0.7513857166600852, 21.69534820592298, 43.041924113962764, 71.8714605018883, 62.579673997182155 
119.21876117893116, -0.6123363006875179, 21.695356115586016, 43.961468616868586, 71.5125915539889, 62.58210962515706 
118.29774139922975, -0.46723120964050874, 21.695362649841414, 44.829254587190626, 71.14514019766591, 62.58464594602227 
117.37772002255691, -0.3161143717310571, 21.695367587565517, 45.647099305652006, 70.76967906709112, 62.58728149045658 
116.45872415752542, -0.15903131998292883, 21.695370700783307, 46.416853598676326, 70.38675071979624, 62.590014735922445 
115.54077907395643, 0.003970844785437641, 21.695371755018606, 47.140379293232456, 69.99686835577614, 62.59284410805529 
114.62390815745383, 0.17284349156401146, 21.695370509654776, 47.81953061710096, 69.60051675457248, 62.59576798209585 
113.70813286692389, 0.347536497244524, 21.695366718305657, 48.45613910153873, 69.19815337051382, 62.598784684362876 
112.7934726950326, 0.5279982851084918, 21.695360129196228, 49.052001549864265, 68.79020953618839, 62.60189249376541 
111.87994513158179, 0.7141758636151478, 21.69535048555237, 49.60887065654013, 68.37709173316235, 62.605089643352166 
110.96756562977697, 0.9060148653954215, 21.695337525999282, 50.12844789152645, 67.95918289684504, 62.60837432189602 
110.0563475753513, 1.1034595863592633, 21.69532098496812, 50.61237829991536, 67.53684372923514, 62.61174467551219 
109.14630225850058, 1.3064530248251864, 21.695300593110172, 51.0622469041091, 67.11041399910407, 62.615198809307536 
108.2374388485781, 1.5149369205827037, 21.6952760777181, 51.47957643293606, 66.6802138140633, 62.61873478905945 
107.3297643714887, 1.728851793800253, 21.695247163153674, 51.86582613768074, 66.24654485301589, 62.622350642921916 
106.4232836897172, 1.9481369836934335, 21.695213571281528, 52.222391488138314, 65.80969155080982, 62.62604436315725 
105.51799948491747, 2.1727306868709064, 21.695175021908142, 52.550604572003095, 65.36992222959084, 62.62981390789071 
104.61391224298485, 2.4025699952776356, 21.69513123322578, 52.85173504795645, 64.92749017349409, 62.633657202886496 
103.71102024152826, 2.6375909336582652, 21.69508192226049, 53.126991526728176, 64.48263464499468, 62.63757214334296 
102.80931953965423, 2.8777284964659424, 21.69502680532385, 53.3775232752914, 64.0355818425457, 62.64155659570465 
101.9088039699714, 3.1229166841451, 21.694965598467682, 53.60442215742083, 63.58654580012337, 62.64560839948937 
101.00946513271968, 3.373088538719919, 21.694898017941195, 53.80872473934583, 63.13572923003937, 62.64972536912798 
100.11129239192674, 3.628176178622949, 21.694823780649998, 53.99141450243039, 62.68332431091545, 62.653905295815164 
99.21427287349098, 3.888110832702226, 21.694742604616344, 54.153424115978865, 62.22951342308553, 62.65814594936839 
98.3183914650894, 4.152822873347841, 21.69465420943996, 54.295637732654896, 61.7744698339323, 62.6624450800939 
97.42363081780658, 4.4222418486829165, 21.694558316758958, 54.4188932768487, 61.31835833580487, 62.66680042065676 
96.5299713493816, 4.696296513766574, 21.69445465071015, 54.52398470285251, 60.86133583922587, 62.671209687953564 
95.63739124896797, 4.974914860760508, 21.69434293838817, 54.61166420509784, 60.403551924098245, 62.6756705849853 
94.74586648330359, 5.258024148013423, 21.694222910302862, 54.6826443671438, 59.94514935157964, 62.68018080272863 
93.85537080418698, 5.5455509280215045, 21.69409430083419, 54.73760023973084, 59.48626453921702, 62.684738022003486 
92.9658757571586, 5.837421074225727, 21.69395684868431, 54.77717134116016, 59.02702800183693, 62.68933991533481 
92.07735069128692, 6.133559806610505, 21.693810297325992, 54.80196357563546, 58.56756476057293, 62.69398414880683 
91.18976276996074, 6.43389171607106, 21.693654395446824, 54.81255106710664, 58.10799472228942, 62.698668383907425 
90.30307698259303, 6.738340787519859, 21.69348889738888, 54.80947790766471, 57.6484330315336, 62.70339027936127 
89.41725615714233, 7.046830421705734, 21.69331356358284, 54.793259820722604, 57.188990397017385, 62.708147492949536 
88.53226097336314, 7.359283455721918, 21.693128160976435, 54.76438574013409, 56.729773394503795, 62.712937683313896 
87.64804997669792, 7.675622182182232, 21.692932463456234, 54.723319307102564, 56.270884747846154, 62.71775851174411 
86.76457959272946, 7.995768367047112, 21.692726252262677, 54.67050028725188, 55.812423589808105, 62.72260764394614 
85.88180414211398, 8.31964326608424, 21.692509316397373, 54.60634591060683, 55.35448570417613, 62.727482751790134 
84.99967585592196, 8.647167639950377, 21.692281453022385, 54.53125213749044, 54.89716375056635, 62.732381515035634 
84.11814489131655, 8.97826176788416, 21.69204246785092, 54.4455948535098, 54.44054747322321, 62.73730162303326 
83.23715934750498, 9.312845460001254, 21.691792175528885, 54.34973099689271, 53.98472389501014, 62.742240776400465 
82.35666528190377, 9.650838068185934, 21.69153040000683, 54.24399962146955, 53.529777497700344, 62.74719668867026 
81.47660672646235, 9.992158495575081, 21.691256974901737, 54.12872289858004, 53.07579038959081, 62.752167087911076 
80.59692570409754, 10.336725204632488, 21.690971743848284, 54.00420706113514, 52.62284246138296, 62.75714971831666 
79.71756224519406, 10.684456223813621, 21.690674560838943, 53.87074329298817, 52.17101153119951, 62.76214234176416 
78.83845440413472, 11.03526915282228, 21.690365290552688, 53.72860856667278, 51.72037347953902, 62.76714273933909 
77.95953827582815, 11.389081166463008, 21.69004380867161, 53.57806643245549, 51.271002374905954, 62.77214871282613 
77.0807480122089, 11.745809017093976, 21.689710002185265, 53.41936776153084, 50.8229705907962, 62.77715808616405 
76.20201583869073, 12.105369035687493, 21.689363769682142, 53.25275144606084, 50.376348914663474, 62.78216870686375 
75.32327207056079, 12.467677131505939, 21.689005021628056, 53.07844505863265, 49.93120664944293, 62.78717844738827 
74.44444512930862, 12.832648790403132, 21.688633680630826, 52.89666547357778, 49.48761170816233, 62.79218520649333 
73.56546155889058, 13.200199071762016, 21.68824968169115, 52.70761945246802, 49.04563070212872, 62.79718691052762 
72.68624604193852, 13.570242604081121, 21.687852972439202, 52.51150419597673, 48.605329023140364, 62.802181514691796 
71.80672141592652, 13.94269357922358, 21.687443513356545, 52.30850786417063, 48.16677092013754, 62.80716700425467 
70.92680868931937, 14.317465745343616, 21.68702127798319, 52.09881006717859, 47.73001957067349, 62.812141395726655 
70.04642705773166, 14.694472398506964, 21.686586253109514, 51.88258232806856, 47.295137147556204, 62.8171027379883 
69.16549392013596, 15.073626373022488, 21.686138438952558, 51.65998851965443, 46.862184880984444, 62.82204911337447 
