# MEX_intpoint_lon [deg], MEX_intpoint_lat [deg], MEX_intpoint_angle [deg], TGO_intpoint_lon [deg], TGO_intpoint_lat [deg], TGO_intpoint_angle [deg] 
-139.00916607642412, 19.518403448254166, 21.5633890738649, -27.627411972887025, 43.44317001680534, 62.84734641871239 
-139.90675327711355, 19.127280717344313, 21.563965753030427, -27.9359744048855, 43.84434476189282, 62.84275215301041 
-140.8027169078135, 18.73723043906195, 21.564531077817755, -28.239983969604772, 44.24816199549395, 62.83812613312367 
-141.69715636535742, 18.34834556146766, 21.565084889706373, -28.53934679487556, 44.65457191837142, 62.83346980968379 
-142.5901695411614, 17.960718378134263, 21.565627043931354, -28.833965117121583, 45.06352434777823, 62.82878467270305 
-143.48185279665358, 17.574440549379435, 21.5661574094987, -29.12373705120145, 45.47496869581008, 62.82407225106163 
-144.3723009399042, 17.189603122586114, 21.56667586918394, -29.408556346999514, 45.88885394585096, 62.819334111947164 
-145.26160720331592, 16.806296551573787, 21.567182319514174, -29.688312131849205, 46.305128626996094, 62.814571860247916 
-146.149863222246, 16.42461071498569, 21.567676670733718, -29.962888637802664, 46.723740786327184, 62.80978713789866 
-147.03715901443925, 16.044634933659268, 21.568158846753136, -30.23216491268387, 47.14463795890318, 62.8049816231804 
-147.92358296016275, 15.666457986948664, 21.568628785082204, -30.49601451378088, 47.56776713531871, 62.80015702997413 
-148.80922178294074, 15.290168127970476, 21.5690864367465, -30.754305182943746, 47.99307472666867, 62.79531510696853 
-149.69416053079811, 14.915853097745096, 21.569531766188003, -31.006898501759444, 48.420506526743445, 62.790457636822886 
-150.57848255792993, 14.543600138207855, 21.569964751149868, -31.25364952537145, 48.85000767126395, 62.785586435284976 
-151.46226950672158, 14.173496004065822, 21.570385382545453, -31.494406393400173, 49.28152259394767, 62.78070335026522 
-152.34560129005501, 13.805626973477171, 21.57079366431185, -31.72900991630027, 49.71499497917938, 62.77581026086684 
-153.22855607384153, 13.44007885753205, 21.571189613248126, -31.95729313536069, 50.15036771103857, 62.77090907637356 
-154.1112102597327, 13.076937008514586, 21.571573258838647, -32.179080854413606, 50.58758281841371, 62.766001735195026 
-154.99363846796606, 12.716286326927715, 21.57194464306136, -32.39418914116717, 51.026581415908396, 62.761090203770884 
-155.8759135203117, 12.358211267263185, 21.572303820181894, -32.602424795914914, 51.46730364021784, 62.75617647543421 
-156.75810642309193, 12.002795842501156, 21.572650856533123, -32.8035847851996, 51.90968858162328, 62.751262569235394 
-157.64028635025414, 11.65012362732438, 21.572985830281105, -32.99745563782151, 52.353674210220596, 62.74635052872715 
-158.52252062648384, 11.300277760034117, 21.573308831177165, -33.18381280037989, 52.79919729646202, 62.741442420711785 
-159.40487471035124, 10.953340943155593, 21.573619960296956, -33.3624199493199, 53.246193325551324, 62.73654033395159 
-160.2874121774922, 10.609395442722843, 21.57391932976648, -33.533028256227226, 53.694596405188825, 62.73164637784358 
-161.1701947038298, 10.268523086233888, 21.574207062475676, -33.69537560286549, 54.144339166114875, 62.72676268105951 
-162.0532820488506, 9.930805259268787, 21.574483291779828, -33.849185742190244, 54.59535265484802, 62.72189139015252 
-162.93673203895423, 9.596322900764866, 21.57474816118929, -33.994167401295385, 55.047566217955975, 62.71703466813128 
-163.82060055090216, 9.265156496944739, 21.575001824047842, -34.13001332195432, 55.50090737713403, 62.712194693003504 
-164.70494149539667, 8.93738607389489, 21.57524444320025, -34.256399234110454, 55.955301694295336, 62.70737365628931 
-165.58980680082735, 8.613091188793865, 21.57547619064928, -34.37298275734933, 56.41067262580086, 62.70257376150651 
-166.47524639722673, 8.292350919791515, 21.57569724720282, -34.47940222505107, 56.866941364871465, 62.69779722262846 
-167.36130820048416, 7.975243854542212, 21.57590780211146, -34.57527542557886, 57.32402667113217, 62.69304626251696 
-168.24803809686907, 7.661848077397407, 21.576108052697045, -34.66019825451087, 57.78184468613588, 62.688323111330284 
-169.13547992792277, 7.352241155264728, 21.57629820397263, -34.73374327157487, 58.24030873360171, 62.6836300049092 
-170.02367547578086, 7.046500122143207, 21.576478468254525, -34.795458155603825, 58.699329102979775, 62.67896918314142 
-170.91266444899273, 6.74470146234641, 21.57664906476666, -34.844864050505784, 59.1588128148197, 62.674342888306974 
-171.8024844689098, 6.44692109242789, 21.57681021923806, -34.88145379494562, 59.618663366271406, 62.66975336340523 
-172.69317105671755, 6.1532343418255655, 21.576962163493764, -34.90469002818513, 60.07878045488673, 62.66520285046608 
-173.58475762119028, 5.86371593224431, 21.577105135039897, -34.914003164340116, 60.53905967871372, 62.66069358884631 
-174.47727544725012, 5.57843995579903, 21.577239376643217, -34.908789227218094, 60.999392210484224, 62.656227813513254 
-175.37075368541713, 5.297479851942586, 21.577365135905925, -34.888407537925175, 61.45966444348913, 62.65180775331727 
-176.26521934223672, 5.020908383206503, 21.577482664836197, -34.85217824762204, 61.919757606511226, 62.64743562925498 
-177.1606972717767, 4.748797609784738, 21.577592219414896, -34.799379708213074, 62.3795473449461, 62.64311365272486 
-178.05721016828548, 4.481218862993986, 21.57769405915921, -34.72924567443699, 62.83890326498521, 62.638844023777274 
-178.95477856010638, 4.218242717646965, 21.57778844668373, -34.64096233186892, 63.297688437463925, 62.634628929360524 
-179.85342080494303, 3.9599389633783235, 21.57787564725942, -34.533665146841955, 63.75575885769181, 62.63047054156513 
179.2468469134267, 3.7063765749656628, 21.577955928371264, -34.406435536371696, 64.21296285728816, 62.62637101586758 
178.34601058689202, 3.457623681691458, 21.578029559275024, -34.25829735896765, 64.66914046374383, 62.62233248937649 
177.44405838310902, 3.213747535794914, 21.57809681055372, -34.08821323092451, 65.12412270312994, 62.61835707908199 
176.5409806438614, 2.9748144800656386, 21.578157953674424, -33.89508067752153, 65.57773084108366, 62.61444688011089 
175.63676988158798, 2.7408899146344914, 21.578213260545994, -33.677728134791366, 66.02977555693268, 62.610603963989554 
174.73142077398214, 2.5120382630198215, 21.57826300307823, -33.43491082546862, 66.48005604559103, 62.60683037691617 
173.82493015657158, 2.2883229374905363, 21.578307452743104, -33.16530654278042, 66.92835904169202, 62.60312813804451 
172.91729701318843, 2.0698063038103975, 21.57834688013864, -32.867511388351204, 67.37445776034812, 62.599499237781195 
172.00852246424367, 1.8565496454308803, 21.57838155455595, -32.54003552619923, 67.81811074898181, 62.59594563609816 
171.09860975272292, 1.648613127202846, 21.57841174355007, -32.18129903422129, 68.25906064490387, 62.59246926086252 
170.18756422782448, 1.4460557586798963, 21.578437712515168, -31.7896279584097, 68.69703283379003, 62.58907200618574 
169.27539332616522, 1.2489353570890729, 21.578459724264544, -31.36325070411478, 69.13173400500129, 62.58575573079381 
168.362106550486, 1.0573085100469006, 21.578478038616158, -30.900294933829255, 69.56285060090583, 62.58252225642062 
167.4477154457929, 0.8712305381011397, 21.57849291198412, -30.398785183144415, 69.9900471591135, 62.57937336622618 
166.53223357287672, 0.6907554571807959, 21.57850459697671, -29.856641456626456, 70.41296454897441, 62.576310803241924 
165.61567647916073, 0.5159359410387169, 21.578513342001425, -29.271679124216725, 70.8312181069984, 62.57333626884441 
164.69806166683315, 0.34682328377304783, 21.57851939087765, -28.641610506997978, 71.24439568023246, 62.57045142125979 
163.77940855822908, 0.18346736251512522, 21.578522982457358, -27.964048619026983, 71.65205559232948, 62.56765787410055 
162.8597384584335, 0.025916600372741735, 21.578524350254458, -27.236513619003, 72.053724554327, 62.56495719493642 
161.93907451508673, -0.1257820702814675, 21.578523722083165, -26.456442620409305, 72.44889555132127, 62.56235090390095 
161.01744167538197, -0.2715832440858449, 21.578521319705878, -25.621203608551223, 72.83702574757147, 62.55984047233614 
160.09486664025349, -0.4114430784388334, 21.578517358491247, -24.728114312670264, 73.21753446638353, 62.55742732147568 
159.17137781576386, -0.5453193286304102, 21.57851204708249, -23.77446697330805, 73.58980131762188, 62.55511282116955 
158.2470052617081, -0.6731713822649109, 21.578505587076737, -22.75756001798779, 73.95316456498209, 62.5528982886511 
157.32178063746255, -0.794960292885125, 21.578498172715694, -21.674737696297523, 74.30691984712104, 62.550784987347654 
156.39573714511633, -0.9106488127080862, 21.578489990587983, -20.52343870765754, 74.65031939096056, 62.548774125737204 
155.46890946993307, -1.0202014243846238, 21.578481219343715, -19.301254754977126, 74.98257188107462, 62.54686685625173 
154.54133371820154, -1.1235843716958684, 21.578472029421413, -18.005999743446893, 75.3028431745373, 62.54506427422883 
153.61304735254274, -1.2207656891022416, 21.57846258278801, -16.63578998069938, 75.6102580736647, 62.54336741691309 
152.6840891247521, -1.3117152300623531, 21.578453032691808, -15.189135187165702, 75.90390338650478, 62.5417772625085 
151.75449900626492, -1.3964046940421466, 21.57844352342925, -13.66503936398933, 76.18283251249788, 62.54029472928266 
150.82431811634294, -1.4748076521373032, 21.5784341901253, -12.063109575013543, 76.44607178328715, 62.53892067472476 
149.89358864808884, -1.5468995712354623, 21.57842515852812, -10.383669489669328, 76.69262876041266, 62.537655894757386 
148.9623537924062, -1.61265783664819, 21.578416544818072, -8.62787315474155, 76.92150263676366, 62.53650112300421 
148.03065766002885, -1.6720617731466347, 21.578408455431422, -6.797813016595403, 77.13169680235485, 62.5354570301136 
147.09854520175406, -1.7250926643391205, 21.57840098689896, -4.896614863260099, 77.32223351475226, 62.534524223139705 
146.16606212702038, -1.771733770333209, 21.57839422569965, -2.9285113179146824, 77.49217046179862, 62.533703244981425 
145.23325482097852, -1.811970343629709, 21.578388248129706, -0.8988850526820332, 77.64061882624495, 62.532994573880025 
144.30017026021125, -1.8457896432010623, 21.578383120187013, 1.1857267317065658, 77.76676227220727, 62.53239862297645 
143.36685592726263, -1.8731809467117373, 21.57837889747134, 3.317673588447313, 77.86987609241964, 62.5319157399282 
142.43335972414388, -1.8941355608437624, 21.57837562510014, 5.488283332766865, 77.94934560847574, 62.53154620658701 
141.4997298849867, -1.9086468296960175, 21.57837333764036, 7.688004631808141, 78.00468283063758, 62.53129023873701 
140.56601488801923, -1.916710141231903, 21.578372059056203, 9.90659719816137, 78.03554038283741, 62.53114798589466 
139.63226336704292, -1.9183229317555495, 21.578371802672848, 12.1333615674298, 78.04172179650209, 62.53111953116971 
138.69852402259042, -1.9134846884031356, 21.578372571156343, 14.357396342110807, 78.02318747405222, 62.53120489118792 
137.7648455329469, -1.902196949641483, 21.57837435650955, 16.56786778457019, 77.98005590326235, 62.531404016075726 
136.83127646521672, -1.8844633037725338, 21.578377140084275, 18.754275254058435, 77.91260003598073, 62.5317167895066 
135.89786518661822, -1.8602893854482896, 21.578380892609406, 20.9066964524265, 77.8212390879472, 62.53214302880898 
134.96465977618757, -1.829682870206759, 21.5783855742352, 23.015998686661572, 77.7065263274426, 62.53268248513605 
134.03170793707167, -1.7926534670456726, 21.578391134593534, 25.074005981599747, 77.56913366231177, 62.533334843696686 
133.0990569095856, -1.7492129090564899, 21.578397512874062, 27.07361628095834, 77.40983398349096, 62.534099724047586 
132.16675338520943, -1.6993749421471847, 21.578404637916293, 29.00886748834549, 77.22948227069358, 62.53497668044605 
131.2348434216921, -1.6431553118878985, 21.578412428317204, 30.874955123896314, 77.02899642013273, 62.53596520226282 
130.3033723594269, -1.5805717485191373, 21.578420792554596, 32.66820748348082, 76.80933863467281, 62.53706471445494 
129.37238473925726, -1.511643950167421, 21.57842962912571, 34.386026182158254, 76.57149804956099, 62.538274578097365 
128.4419242218636, -1.4363935643186196, 21.578438826701117, 36.026800844739405, 76.31647507864787, 62.539594090973154 
127.51203350887779, -1.3548441676038652, 21.578448264293584, 37.589806632146015, 76.04526777999295, 62.54102248822108 
126.58275426586145, -1.2670212439577162, 21.578457811441776, 39.07509250807469, 75.75886037310734, 62.54255894304019 
125.65412704727817, -1.1729521612125986, 21.578467328408433, 40.48336692475814, 75.45821390312715, 62.544202567450206 
124.72619122357992, -1.0726661461974625, 21.57847666639288, 41.815886183257895, 75.14425894403735, 62.54595241310669 
123.79898491052046, -0.9661942584126391, 21.578485667757445, 43.07434929474419, 74.81789016297594, 62.54780747217004 
122.87254490079721, -0.8535693623559941, 21.57849416626772, 44.26080186576335, 74.47996252678912, 62.54976667822762 
121.94690659811575, -0.7348260985788609, 21.57850198734606, 45.377550426782854, 74.13128891490743, 62.55182890726656 
121.02210395375947, -0.6100008535528086, 21.578508948338193, 46.42708774774641, 73.77263890337039, 62.553992978697856 
120.0981694057377, -0.4791317284309422, 21.578514858792495, 47.41202903298473, 73.40473849791148, 62.55625765642878 
119.17513382057587, -0.34225850678926883, 21.578519520751595, 48.33505843685168, 73.02827061471865, 62.55862164998314 
118.25302643780023, -0.19942262143568135, 21.57852272905593, 49.19888505748025, 72.64387613208858, 62.56108361566794 
117.33187481716028, -0.05066712037522514, 21.578524271658814, 50.00620741326434, 72.25215536195579, 62.563642157784415 
116.41170478862159, 0.10396336797831689, 21.578523929952592, 50.75968535138179, 71.8536698153302, 62.566295829882755 
115.49254040515191, 0.2644226702541058, 21.578521479105554, 51.46191835074174, 71.44894415884534, 62.569043136058134 
114.57440389831359, 0.4306631041480817, 21.57851668840904, 52.11542923947584, 71.03846828027436, 62.571882532287006 
113.65731563666571, 0.6026355149280506, 21.578509321634318, 52.722652431211884, 70.62269939876025, 62.57481242780189 
112.74129408697033, 0.7802893123291268, 21.57849913739883, 53.285925881416155, 70.20206417064252, 62.577831186502635 
111.8263557781879, 0.9635725077493031, 21.578485889541216, 53.80748606563572, 69.7769607543109, 62.58093712840287 
110.91251526823818, 1.1524317516558933, 21.578469327504664, 54.289465379273146, 69.34776080773875, 62.58412853110977 
109.99978511349555, 1.34681237111429, 21.578449196728172, 54.73389144975011, 68.91481140053628, 62.58740363133497 
109.08817584097838, 1.5466584073523875, 21.578425239045036, 55.14268793448427, 68.47843682881955, 62.59076062643544 
108.17769592318638, 1.751912653275088, 21.57839719308816, 55.517676451156134, 68.03894032619701, 62.5941976759819 
107.26835175553099, 1.9625166908456448, 21.578364794701674, 55.86057935023, 67.59660566798941, 62.59771290335336 
106.3601476362997, 2.178410928252143, 21.578327777358147, 56.1730230940757, 67.15169866864895, 62.6013043973554 
105.45308574908695, 2.399534636780133, 21.578285872581123, 56.45654205306235, 66.70446857441856, 62.60497021386091 
104.54716614762057, 2.6258259873143293, 21.578238810372127, 56.7125825675474, 66.25514935473939, 62.608708377470705 
103.64238674290691, 2.8572220863953643, 21.578186319641834, 56.94250715668858, 65.803960896904, 62.61251688319263 
102.73874329261375, 3.093659011759784, 21.578128128644675, 57.147598781358944, 65.35111010907609, 62.616393698137 
101.83622939260646, 3.335071847294576, 21.578063965416323, 57.329065089985555, 64.89679193714275, 62.62033676322626 
100.93483647054866, 3.581394717340431, 21.577993558213603, 57.488042593609904, 64.44119030100092, 62.624343994917155 
100.03455378147748, 3.83256082028064, 21.577916635956107, 57.6256007305546, 63.9844789558642, 62.62841328693357 
99.13536840525951, 4.088502461355958, 21.577832928669025, 57.74274579234923, 63.52682228404993, 62.63254251200771 
98.2372652458332, 4.349151084648504, 21.577742167926555, 57.84042469151695, 63.06837602250578, 62.63672952362785 
97.34022703214117, 4.6144373041812665, 21.577644087295337, 57.91952855887015, 62.60928793108344, 62.640972157791104 
96.44423432065645, 4.884290934082416, 21.577538422777376, 57.98089616346113, 62.149698406286376, 62.64526823475853 
95.54926549940464, 5.158641017767504, 21.57742491325177, 58.025317152575646, 61.689741044920716, 62.64961556081137 
94.65529679338624, 5.4374158560949075, 21.577303300914785, 58.05353511238653, 61.22954316177781, 62.65401193000615 
93.76230227130205, 5.720543034453835, 21.57717333171753, 58.066250452302825, 60.769226265176336, 62.658455125926906 
92.87025385348751, 6.0079494487466105, 21.57703475580088, 58.064123117819065, 60.30890649390301, 62.662942923432524 
91.97912132096181, 6.299561330230456, 21.57688732792693, 58.04777513792622, 59.84869501881133, 62.667473090397614 
91.0888723255002, 6.595304269186822, 21.57673080790636, 58.01779301399716, 59.38869841207419, 62.672043389444795 
90.19947240064052, 6.895103237389099, 21.576564961021372, 57.97472995759556, 58.92901898683819, 62.676651579667016 
89.3108849735365, 7.19888260934278, 21.576389558443434, 57.91910798494723, 58.46975510979512, 62.68129541833747 
88.42307137757476, 7.506566182274469, 21.57620437764531, 57.851419875915425, 58.01100148897159, 62.68597266260635 
87.53599086567405, 7.818077194849302, 21.57600920280699, 57.77213100528225, 57.552849438838024, 62.69068107118185 
86.64960062419074, 8.133338344598533, 21.575803825214802, 57.68168105399301, 57.09538712465551, 62.695418405993955 
85.76385578735618, 8.452271804042043, 21.575588043653294, 57.580485607798394, 56.638699787809756, 62.70018243384006 
84.87870945217813, 8.774799235492422, 21.57536166478927, 57.46893765045331, 56.18286995372798, 62.70497092800973 
83.99411269374042, 9.100841804530281, 21.575124503547595, 57.347408958319406, 55.72797762383227, 62.70978166988788 
83.11001458084134, 9.430320192142121, 21.574876383478237, 57.21625140288405, 55.274100452854746, 62.71461245053455 
82.22636219191533, 9.763154605514565, 21.57461713711393, 57.075798167362514, 54.82131391272198, 62.71946107223971 
81.34310063118735, 10.099264787481005, 21.574346606318166, 56.926364883201835, 54.36969144410863, 62.72432535005183 
80.4601730450154, 10.438570024618148, 21.574064642622993, 56.76825069195795, 53.91930459666328, 62.729203113278786 
79.57752063838052, 10.7809891539926, 21.573771107556098, 56.6017392376793, 53.470223158819906, 62.73409220695941 
78.69508269149154, 11.126440568558758, 21.573465872956785, 56.42709959460198, 53.02251527802838, 62.73899049330507 
77.81279657647467, 11.474842221211597, 21.573148821280522, 56.24458713464598, 52.57624757216324, 62.74389585310929 
76.93059777412685, 11.826111627499145, 21.572819845891463, 56.054444338901774, 52.13148523280402, 62.74880618712453 
76.04841989071559, 12.180165867001548, 21.57247885134265, 55.8569015570102, 51.6882921210188, 62.75371941740506 
75.16619467481569, 12.536921583384657, 21.572125753643594, 55.65217771806932, 51.24673085622835, 62.758633488614436 
74.28385203417918, 12.896294983137933, 21.571760480514705, 55.44048099644785, 50.80686289867758, 62.763546369296826 
73.401320052641, 13.258201833007854, 21.571382971628303, 55.22200943564561, 50.36874862599534, 62.76845605311105 
72.51852500707082, 13.622557456139285, 21.57099317883596, 54.99695153311898, 49.9324474042828, 62.77336056002622 
71.6353913843868, 13.989276726938776, 21.570591066381642, 54.765486788780095, 49.49801765413192, 62.77825793747809 
70.75184189865574, 14.358274064675019, 21.57017661110063, 54.52778621968422, 49.06551691194228, 62.78314626148558 
69.86779750830976, 14.729463425833252, 21.56974980260367, 54.284012843238386, 48.635001886872175, 62.78802363772599 
