# MEX_intpoint_lon [deg], MEX_intpoint_lat [deg], MEX_intpoint_angle [deg], TGO_intpoint_lon [deg], TGO_intpoint_lat [deg], TGO_intpoint_angle [deg] 
-138.54025869349687, 19.402521651478775, 21.25313885403595, -27.752237589123, 47.11212849273279, 62.77073280484194 
-139.4477658254726, 19.028501131429138, 21.253679164605323, -28.13021604635873, 47.49518271124168, 62.76637533899897 
-140.35366131570606, 18.655461621344408, 21.25420923397432, -28.50486311468079, 47.880979062461876, 62.76199284152648 
-141.25803746096184, 18.28349419308479, 21.254728913008833, -28.87611421511995, 48.26947749088242, 62.75758668216375 
-142.1609852602589, 17.91268927940919, 21.255238064979952, -29.243901936299892, 48.66063778755728, 62.7531582618863 
-143.06259438489798, 17.54313669108981, 21.25573656557948, -29.60815584855941, 49.05441958310409, 62.74870901242977 
-143.9629531498709, 17.1749256332983, 21.256224302920526, -29.96880230611627, 49.450782339720675, 62.74424039577559 
-144.86214848652526, 16.808144721224057, 21.256701177523105, -30.325764236331487, 49.84968534216057, 62.73975390359929 
-145.76026591636537, 16.44288199488673, 21.257167102284914, -30.67896091504743, 50.25108768760392, 62.735251056681534 
-146.65738952588148, 16.079224933108048, 21.25762200243713, -31.028307726878758, 50.65494827435311, 62.730733404281615 
-147.55360194230371, 15.717260466609284, 21.258065815485743, -31.373715909231628, 51.06122578927634, 62.72620252347453 
-148.44898431018854, 15.357074990203193, 21.258498491138067, -31.715092278712127, 51.46987869391439, 62.72166001845161 
-149.3436162687508, 14.998754374050952, 21.25891999121489, -32.05233893845844, 51.880865209157136, 62.717107519784896 
-150.2375759298638, 14.642383973956214, 21.259330289548235, -32.38535296479206, 52.29414329838776, 62.71254668365626 
-151.1309398566563, 14.288048640670455, 21.259729371865067, -32.714026071428606, 52.70967064898109, 62.70797919105105 
-152.02378304264298, 13.93583272818502, 21.26011723565688, -33.0382442493182, 53.12740465203199, 62.70340674691772 
-152.91617889133232, 13.585820100987403, 21.26049389003558, -33.35788737999592, 53.547302380175694, 62.698831079292844 
-153.80819919626256, 13.238094140260166, 21.260859355575796, -33.67282882011285, 53.96932056334872, 62.694253938393416 
-154.69991412142338, 12.892737749003267, 21.261213664143863, -33.98293495458466, 54.39341556232169, 62.68967709567585 
-155.5913921820276, 12.549833356061223, 21.26155685871363, -34.28806471553615, 54.81954333981868, 62.68510234286337 
-156.48270022560385, 12.209462919038806, 21.26188899316957, -34.588069063930604, 55.24765942901625, 62.680531490942045 
-157.37390341338784, 11.871707926089886, 21.26221013209725, -34.88279043045251, 55.67771889919442, 62.67596636912599 
-158.2650652019952, 11.536649396565988, 21.26252035056156, -35.172062111853045, 56.10967631828492, 62.67140882379337 
-159.15624732536625, 11.204367880512239, 21.262819733872995, -35.45570761856844, 56.543485712035476, 62.66686071739315 
-160.04750977697807, 10.874943457000423, 21.263108377342334, -35.73353996897385, 56.97910051947561, 62.66232392732411 
-160.93891079232546, 10.548455731289929, 21.263386386023992, -36.005360925135975, 57.416473544334835, 62.65780034478673 
-161.83050683167815, 10.224983830809336, 21.26365387444843, -36.27096016436792, 57.85555690202341, 62.65329187360917 
-162.72235256312672, 9.90460639995293, 21.263910966344028, -36.53011438026194, 58.29630196174005, 62.64880042904783 
-163.6145008459356, 9.58740159368803, 21.264157794348726, -36.782586306172774, 58.738659283220905, 62.644327936564295 
-164.50700271422622, 9.273447069971068, 21.264394499711823, -37.02812365333255, 59.18257854758461, 62.6398763305792 
-165.39990736101913, 8.962819980971638, 21.264621231986396, -37.26645795489039, 59.628008481663855, 62.63544755320399 
-166.29326212266724, 8.655596963106246, 21.26483814871275, -37.497303306168746, 60.07489677513872, 62.631043552952484 
-167.18711246371976, 8.351854125884763, 21.265045415093226, -37.720354990301615, 60.52318998970274, 62.6266662834324 
-168.08150196225733, 8.051667039575143, 21.265243203658848, -37.9352879771493, 60.97283345939642, 62.622317702018925 
-168.97647229574673, 7.755110721693585, 21.26543169392835, -38.141755281949436, 61.42377118113312, 62.61799976851094 
-169.8720632274647, 7.46225962232965, 21.26561107205988, -38.339386168544486, 61.87594569431767, 62.61371444377159 
-170.76831259354645, 7.173187608317971, 21.265781530495953, -38.52778418019343, 62.329297948314704, 62.60946368835438 
-171.66525629071663, 6.887967946270504, 21.265943267602072, -38.70652497890342, 62.7837671563602, 62.605249461115754 
-172.56292826476445, 6.606673284485524, 21.26609648729946, -38.87515397187048, 63.239290634322934, 62.60107371781616 
-173.46136049982866, 6.329375633751761, 21.266241398692532, -39.03318370096113, 63.695803622506475, 62.596938409710496 
-174.36058300855854, 6.05614634706908, 21.2663782156914, -39.180090968153365, 64.15323908843564, 62.59284548212927 
-175.26062382322317, 5.787056098308798, 21.266507156630094, -39.31531366644218, 64.6115275082863, 62.58879687305251 
-176.16150898784005, 5.522174859839993, 21.266628443880837, -39.43824728184202, 65.07059662428865, 62.58479451167696 
-177.06326255139834, 5.261571879150327, 21.266742303465033, -39.548241027729404, 65.53037117505484, 62.580840316978836 
-177.9659065622532, 5.005315654492703, 21.266848964661346, -39.64459356779446, 65.99077259534285, 62.576936196272996 
-178.86946106376843, 4.753473909591617, 21.266948659611504, -39.72654827823542, 66.45171868125979, 62.573084043770585 
-179.77394409128604, 4.506113567445986, 21.267041622924214, -39.79328799345457, 66.91312321631817, 62.56928573913612 
179.32062832949794, 4.263300723267686, 21.26712809127792, -39.8439291723126, 67.37489555307275, 62.56554314604579 
178.41424218267224, 4.025100616597842, 21.267208303022574, -39.87751541387773, 67.83694014426973, 62.56185811074855 
177.5068854606845, 3.791577602645824, 21.267282497781405, -39.89301024247871, 68.29915601651074, 62.558232460631444 
176.59854816127213, 3.5627951228981103, 21.267350916052784, -39.88928907164925, 68.76143617835325, 62.55466800279069 
175.6892222826727, 3.338815675047525, 21.26741379881294, -39.86513024516376, 69.22366695350732, 62.551166522609975 
174.7789018170372, 3.1197007822954057, 21.267471387120022, -39.81920504076261, 69.68572722831559, 62.54772978234795 
173.86758274197268, 2.9055109620822033, 21.26752392171999, -39.7500665083483, 70.14748760098456, 62.54435951973578 
172.9552630101417, 2.6963056943043666, 21.267571642654836, -39.6561369994695, 70.60880941802749, 62.5410574465869 
172.04194253684972, 2.4921433890780134, 21.267614788873722, -39.53569422897929, 71.06954368103675, 62.53782524742014 
171.12762318555488, 2.2930813541120094, 21.267653597847428, -39.38685569320687, 71.52952980417169, 62.53466457809814 
170.21230875123734, 2.099175761755507, 21.267688305186816, -39.20756125241912, 71.98859419956926, 62.53157706448189 
169.29600494157012, 1.9104816157871645, 21.267719144265545, -38.99555366973746, 72.44654866419275, 62.52856430110398 
168.37871935583823, 1.7270527180151374, 21.267746345847783, -38.74835688551759, 72.90318853736349, 62.52562784986084 
167.46046146155695, 1.5489416347589011, 21.267770137721246, -38.46325179775905, 73.35829059330598, 62.522769238726546 
166.54124256874607, 1.3761996632856672, 21.267790744336104, -38.13724931873614, 73.81161062742054, 62.519989960488935 
165.62107580182294, 1.2088767982756157, 21.267808386450245, -37.76706049061575, 74.262880688644, 62.51729147150995 
164.69997606908203, 1.0470216983915634, 21.267823280781318, -37.34906347537859, 74.71180590317063, 62.51467519051126 
163.77796002973741, 0.8906816530298202, 21.267835639666053, -36.879267296893744, 75.15806082705316, 62.51214249738695 
162.85504605850932, 0.7399025493298358, 21.267845670727294, -36.353272319616835, 75.60128525697341, 62.50969473204441 
161.9312542077441, 0.594728839521022, 21.267853576549175, -35.766227618746186, 76.04107942012752, 62.50733319327494 
161.0066061670647, 0.4552035086854645, 21.267859554360896, -35.11278565787362, 76.4769984563572, 62.50505913765518 
160.08112522055546, 0.32136804301560273, 21.26786379572946, -34.387055079020364, 76.90854609944446, 62.50287377848105 
159.15483620149445, 0.19326239864567268, 21.267866486261852, -33.58255297563369, 77.33516746157065, 62.50077828473524 
158.22776544465253, 0.07092497113559831, 21.267867805316957, -32.69215882585922, 77.75624082793185, 62.49877378008912 
157.2999407361895, -0.045607434314766354, 21.267867925727757, -31.70807339248467, 78.17106838131527, 62.496861341941276 
156.37139126118308, -0.15629963184393064, 21.26786701353391, -30.621787445665372, 78.57886580478012, 62.49504200049269 
155.44214754883686, -0.26111808302365735, 21.267865227725444, -29.424067245333966, 78.9787507625567, 62.493316737860454 
154.51224141542158, -0.3600309239960458, 21.26786271999741, -28.104966440445047, 79.36973034601013, 62.491686487230716 
153.58170590501146, -0.45300799158005745, 21.267859634516384, -26.653877477118165, 79.75068770769556, 62.490152132052145 
152.65057522808632, -0.5400208482768009, 21.267856107698627, -25.059639740449462, 80.12036831041986, 62.48871450527061 
151.71888469807956, -0.6210428061053176, 21.267852268000492, -23.310726275339974, 80.4773665105629, 62.48737438860632 
150.78667066595696, -0.6960489492029496, 21.26784823572124, -21.395535479955544, 80.82011359556854, 62.4861325118741 
149.85397045292297, -0.7650161551275111, 21.26784412281862, -19.302817513115585, 81.14686891623957, 62.484989552347685 
148.92082228135558, -0.8279231148015674, 21.2678400327373, -17.022265355722382, 81.45571638575468, 62.483946134168775 
147.98726520407928, -0.8847503510422808, 21.267836060250556, -14.545294556953253, 81.74456930774893, 62.483002827801855 
147.05333903209277, -0.9354802356243075, 21.26783229131525, -11.86601978979179, 82.01118712465818, 62.482160149535034 
146.11908426087376, -0.9800970048268095, 21.267828802940492, -8.982406334269973, 82.25320802747702, 62.48141856102784 
145.18454199538942, -1.018586773419802, 21.26782566306996, -5.897527969908319, 82.46820111521222, 62.48077846890631 
144.24975387394667, -1.0509375470494478, 21.267822930478165, -2.6208016211550906, 82.6537405442349, 62.480240224406174 
143.3147619910213, -1.0771392329862228, 21.26782065468075, 0.8309959552119102, 82.80750152591422, 62.47980412306423 
142.37960881920898, -1.0971836492046907, 21.26781887585893, 4.433171723604041, 82.92737405232124, 62.479470404458596 
141.44433713044563, -1.1110645317682044, 21.26781762479823, 8.153263065185595, 83.01158533463668, 62.47923925199788 
140.5089899166474, -1.1187775404969127, 21.26781692284154, 11.952057719837208, 83.05881730668786, 62.47911079275995 
139.57361030992254, -1.1203202629024325, 21.267816781856588, 15.785505344713465, 83.06830287749885, 62.47908509737978 
138.63824150251062, -1.1156922163775207, 21.267817204217796, 19.607338938569633, 83.03988550121561, 62.479162179987505 
137.7029266666041, -1.104894848634318, 21.267818182802745, 23.372040365474902, 82.97403165829992, 62.4793419981959 
136.76770887420943, -1.0879315363899191, 21.267819701002963, 27.037688329313333, 82.87179398859041, 62.47962445313764 
135.83263101720294, -1.0648075823030678, 21.267821732749265, 30.568260363768744, 82.73473167170813, 62.480009389552436 
134.89773572773782, -1.0355302101710468, 21.267824242551537, 33.935108289548594, 82.5648014675871, 62.48049659592365 
133.96306529915503, -1.0001085584009255, 21.26782718555277, 37.117528064598055, 82.36423580545461, 62.4810858046644 
133.02866160755053, -0.9585536717743072, 21.26783050759755, 40.10252716060604, 82.13542326072724, 62.48177669235292 
132.09456603414728, -0.9108784915297198, 21.267834145314733, 42.88400620730085, 81.88080288348168, 62.48256888001669 
131.16081938861706, -0.8570978437917112, 21.26783802621405, 45.46160528099901, 81.60277888897575, 62.483461933465286 
130.227461833494, -0.7972284263801918, 21.267842068796956, 47.839437257552774, 81.30365768091269, 62.48445536367135 
129.29453280981562, -0.7312887940384574, 21.267846182681104, 50.02487100468739, 80.98560587786176, 62.48554862719912 
128.3620709641234, -0.6592993421223953, 21.267850268738556, 52.02746210938842, 80.65062612962981, 62.486741126680215 
127.43011407694816, -0.5812822887977114, 21.267854219247486, 53.858074241205536, 80.30054680965488, 62.488032211335835 
126.49869899290002, -0.4972616557960772, 21.26785791805714, 55.52819604247337, 79.93702176451575, 62.48942117754508 
125.56786155247558, -0.4072632477846624, 21.267861240765832, 57.049435952106556, 79.5615368250344, 62.4909072694582 
124.63763652568805, -0.3113146304071518, 21.267864054911836, 58.43316698855991, 79.17542046366303, 62.49248967965443 
123.70805754761965, -0.20944510705763844, 21.26786622017679, 59.690291097472276, 78.77985665376353, 62.49416754984351 
122.77915705598582, -0.10168569445170851, 21.267867588601383, 60.83109474681707, 78.37589856562292, 62.49593997160973 
121.85096623079554, 0.011930902938165927, 21.267868004813142, 61.865171586756965, 77.96448219420792, 62.49780598719812 
120.92351493618148, 0.131370319513396, 21.267867306265877, 62.801392675598, 77.5464393579538, 62.499764590341265 
119.99683166446749, 0.25659655617448107, 21.26786532349051, 63.64790919359274, 77.12250975334365, 62.501814727126224 
119.07094348253084, 0.3875720088669901, 21.26786188035704, 64.41217636136356, 76.69335191758476, 62.50395529690003 
118.14587598050957, 0.5242574979731562, 21.267856794347136, 65.10099035185095, 76.25955306107812, 62.50618515321315 
117.22165322289595, 0.6666122984725275, 21.267849876837204, 65.72053237274712, 75.82163779912361, 62.50850310479937 
116.29829770204923, 0.8145941707940633, 21.267840933391284, 66.27641589746493, 75.38007585127069, 62.510907916591236 
115.37583029415207, 0.9681593922814341, 21.26782976406376, 66.77373434884892, 74.9352887964517, 62.51339831076941 
114.45427021762711, 1.1272627891927216, 21.26781616371105, 67.21710749648108, 74.48765597934863, 62.515972967845315 
113.53363499402214, 1.2918577691554756, 21.267799922312246, 67.61072550558436, 74.0375196630843, 62.518630527775116 
112.61394041136434, 1.461896353998351, 21.267780825298033, 67.95839004576807, 73.58518951850164, 62.52136959110429 
111.6952004899765, 1.637329212880561, 21.26775865388763, 68.26355218757814, 73.13094653311441, 62.524188720140835 
110.77742745074065, 1.8181056956413257, 21.26773318543305, 68.52934702666167, 72.6750464146297, 62.52708644015651 
109.86063168578818, 2.004173866291889, 21.267704193770594, 68.75862511097566, 72.2177225555958, 62.5300612406138 
108.94482173158742, 2.1954805365741095, 21.267671449578835, 68.95398082897398, 71.75918861770438, 62.53311157641807 
108.03000424439533, 2.391971299510505, 21.267634720742613, 69.11777796277363, 71.29964078684121, 62.53623586919266 
107.1161839780316, 2.593590562872367, 21.26759377272283, 69.25217263181983, 70.83925974325506, 62.539432508576056 
106.2033637639303, 2.8002815824938643, 21.267548368931216, 69.35913385794255, 70.37821238523178, 62.542699853539446 
105.29154449341691, 3.01198649536228, 21.267498271109847, 69.44046197778613, 69.91665333940145, 62.54603623372282 
104.3807251021554, 3.228646352415862, 21.267443239714726, 69.49780511745202, 69.4547262862222, 62.54943995078888 
103.47090255670476, 3.4502011509835047, 21.267383034303087, 69.53267392958237, 68.99256512521069, 62.55290927979233 
102.56207184312096, 3.676589866802167, 21.26731741392375, 69.5464547768742, 68.53029500106346, 62.556442470563695 
101.65422595753691, 3.9077504855504643, 21.267246137510128, 69.54042152936547, 68.0680332088644, 62.56003774910584 
100.7473558986493, 4.143620033839449, 21.267168964275317, 69.51574612653704, 67.60588999404428, 62.563693319001594 
99.84145066204007, 4.384134609603632, 21.267085654108815, 69.47350803979656, 67.14396926058967, 62.56740736283119 
98.93649723625649, 4.629229411838369, 21.26699596797424, 69.41470275650457, 66.68236919914013, 62.57117804359757 
98.03248060057349, 4.878838769632023, 21.266899668307595, 69.34024939349048, 66.22118284502186, 62.575003506158545 
97.12938372436005, 5.132896170444126, 21.266796519415582, 69.2509975360154, 65.76049857490274, 62.5788818786637 
96.22718756797049, 5.391334287583327, 21.26668628787338, 69.14773338734169, 65.30040054958616, 62.58281127399486 
95.32587108508176, 5.654085006841886, 21.266568742921397, 69.0311853044049, 64.84096910945829, 62.58678979120867 
94.42541122639715, 5.921079452245748, 21.26644365686046, 68.90202878647126, 64.38228112824467, 62.5908155169794 
93.52578294463763, 6.192248010882505, 21.266310805444913, 68.76089097601374, 63.92441032999219, 62.594886527040565 
92.62695920074266, 6.4675203567717015, 21.266169968273225, 68.60835472426282, 63.467427573557316, 62.59900088762442 
91.72891097120372, 6.7468254737450195, 21.266020929175323, 68.44496226789303, 63.0114011083335, 62.603156656896964 
90.83160725645445, 7.0300916773064035, 21.26586347659649, 68.27121855801147, 62.55639680447856, 62.60735188638767 
89.93501509024473, 7.317246635444617, 21.26569740397701, 68.08759427794222, 62.10247836049446, 62.611584622412046 
89.03909954992596, 7.608217388373673, 21.26552251012727, 67.89452858217636, 61.64970749065911, 62.6158529074861 
88.14382376757973, 7.902930367178674, 21.265338599597722, 67.69243158522299, 61.19814409450406, 62.62015478173067 
87.2491489419223, 8.201311411347438, 21.265145483043234, 67.48168662588823, 60.747846410265836, 62.62448828426483 
86.35503435092266, 8.503285785170329, 21.264942977581406, 67.26265232968078, 60.298871154009205, 62.62885145458665 
85.46143736507321, 8.808778192993506, 21.26473090714426, 67.0356644895447, 59.85127364591861, 62.63324233394017 
84.56831346125733, 9.117712793312503, 21.26450910282294, 66.80103778291615, 59.40510792508, 62.637658966666976 
83.67561623716034, 9.430013211695952, 21.264277403204996, 66.55906734115113, 58.96042685392179, 62.64209940154164 
82.78329742617561, 9.74560255253072, 21.264035654703594, 66.31003018565033, 58.51728221335039, 62.64656169308918 
81.8913069127611, 10.064403409582342, 21.263783711878535, 66.05418654348175, 58.07572478949867, 62.65104390288372 
80.9995927482059, 10.386337875366463, 21.263521437748306, 65.79178105395178, 57.635804452902924, 62.655544100827015 
80.10810116677173, 10.711327549328741, 21.263248704093105, 65.52304387638, 57.19757023083381, 62.66006036640563 
79.21677660217784, 11.039293544833093, 21.26296539174809, 65.24819170826953, 56.761070373427444, 62.66459078992593 
78.32556170440436, 11.370156494959263, 21.262671390886695, 64.96742872212323, 56.32635241419274, 62.66913347372524 
77.43439735679245, 11.703836557113247, 21.26236660129356, 64.68094742831742, 55.89346322540973, 62.673686533358755 
76.54322269342666, 12.040253416455132, 21.26205093262668, 64.3889294706985, 55.46244906887873, 62.67824809876074 
75.65197511678885, 12.379326288151141, 21.261724304668395, 64.09154636090399, 55.03335564243212, 62.682816315379256 
74.76059031567961, 12.720973918457892, 21.261386647564997, 63.78896015681704, 54.606228122578, 62.68738934528323 
73.86900228340863, 13.065114584648688, 21.26103790205453, 63.48132409003381, 54.18111120360683, 62.69196536824147 
72.97714333626084, 13.411666093793263, 21.2606780196824, 63.16878314675171, 53.75804913345828, 62.69654258277185 
72.08494413225215, 13.76054578040368, 21.260306963004684, 62.8514746060629, 53.33708574661626, 62.70111920716103 
71.19233369019395, 14.111670502960939, 21.259924705778722, 62.529528539259175, 52.91826449427253, 62.705693480452666 
70.29923940909241, 14.464956639338014, 21.259531233140674, 62.20306827341541, 52.501628471976204, 62.7102636634044 
69.40558708791472, 14.820320081136936, 21.25912654176999, 61.87221082221381, 52.08722044496481, 62.7148280394123 
68.51130094576162, 15.177676226958567, 21.25871064004026, 61.53706728669797, 51.67508287135368, 62.71938491540224 
