# MEX_intpoint_lon [deg], MEX_intpoint_lat [deg], MEX_intpoint_angle [deg], TGO_intpoint_lon [deg], TGO_intpoint_lat [deg], TGO_intpoint_angle [deg] 
-138.2114537935319, 19.318840760434153, 21.043974870084572, -27.58060608295021, 49.49979381451697, 62.722450728678254 
-139.125462529672, 18.95665673075917, 21.04449073536353, -28.014072816188612, 49.866956606918784, 62.71832834474692 
-140.03787423350715, 18.595392896581846, 21.04499708609871, -28.445261026839876, 50.23685962025004, 62.7141852673274 
-140.94877630299277, 18.23513885835416, 21.045493779497, -28.87413651110345, 50.60946810245829, 62.71002278870218 
-141.85825497479007, 17.87598359193261, 21.045980684288825, -29.300663551261838, 50.984747256724255, 62.70584222710297 
-142.76639529133456, 17.518015462941587, 21.046457680743845, -29.724804803026196, 51.362662242344015, 62.701644926265786 
-143.673281069365, 17.16132224052576, 21.046924660672733, -30.14652117541891, 51.743178175200526, 62.69743225495498 
-144.57899486979633, 16.805991110450805, 21.047381527415034, -30.565771702577127, 52.126260127807136, 62.693205606455436 
-145.48361796882747, 16.45210868751367, 21.047828195813178, -30.98251340680136, 52.51187312890459, 62.68896639803354 
-146.38723033018334, 16.099761027226393, 21.04826459217282, -31.396701152107198, 52.89998216259039, 62.684716070367344 
-147.28991057839585, 15.749033636738758, 21.048690654209405, -31.80828748746483, 53.29055216695811, 62.680456086945846 
-148.19173597303674, 15.400011484967946, 21.04910633098118, -32.21722247882931, 53.683548032220756, 62.67618793343823 
-149.0927823838219, 15.052779011904432, 21.049511582808815, -32.62345352897399, 54.078934598290196, 62.67191311703256 
-149.9931242665135, 14.707420137065743, 21.049906381181668, -33.02692518403869, 54.476676651781595, 62.6676331657456 
-150.89283463955226, 14.364018267071406, 21.050290708650888, -33.427578925590865, 54.87673892240767, 62.66334962770275 
-151.79198506136086, 14.022656302313687, 21.050664558709528, -33.8253529468732, 55.27908607872461, 62.65906407038978 
-152.6906456082627, 13.683416642701246, 21.05102793565989, -34.22018191176956, 55.68368272318627, 62.65477807987631 
-153.5888848529704, 13.3463811924534, 21.05138085446818, -34.61199669486432, 56.090493386458995, 62.650493260011224 
-154.4867698436008, 13.01163136392536, 21.05172334060691, -35.00072410079313, 56.49948252094336, 62.64621123159171 
-155.38436608318258, 12.679248080445536, 21.05205542988492, -35.38628656088523, 56.91061449344336, 62.64193363150507 
-156.28173750962685, 12.349311778148197, 21.052377168265735, -35.76860180487411, 57.32385357691615, 62.63766211184535 
-157.1789464761367, 12.021902406785845, 21.05268861167404, -36.14758250520255, 57.739163941227865, 62.6333983390043 
-158.07605373203887, 11.69709942950777, 21.052989825790906, -36.523135891164195, 58.156509642831686, 62.62914399273829 
-158.97311840402506, 11.374981821592216, 21.053280885837847, -36.8951633298045, 58.575854613274565, 62.62490076521114 
-159.87019797779604, 11.055628068121786, 21.0535618763501, -37.26355987014101, 58.99716264642728, 62.62067036001421 
-160.7673482801077, 10.73911616059294, 21.053832890939386, -37.628213746852566, 59.42039738431937, 62.61645449116453 
-161.66462346122287, 10.425523592452086, 21.054094032046542, -37.989005839121006, 59.84552230144597, 62.61225488208103 
-162.5620759777772, 10.114927353552806, 21.0543454106843, -38.34580907977809, 60.27250068739614, 62.60807326454107 
-163.4597565760743, 9.807403923529929, 21.05458714617057, -38.69848780930685, 60.70129562763349, 62.60391137761678 
-164.35771427582728, 9.503029264088378, 21.054819365852655, -39.04689706855559, 61.13186998223718, 62.59977096659322 
-165.25599635437092, 9.201878810206193, 21.055042204822673, -39.39088182323495, 61.564186362386856, 62.595653781868464 
-166.15464833137176, 8.904027460253197, 21.055255805624615, -39.730276112362795, 61.99820710434503, 62.5915615778374 
-167.05371395406786, 8.6095495650284, 21.055460317953454, -40.06490211178461, 62.433894240658105, 62.58749611175941 
-167.95323518307453, 8.31851891572145, 21.0556558983467, -40.39456910270123, 62.871209468257476, 62.58345914261174 
-168.85325217879577, 8.031008730805235, 21.055842709868728, -40.7190723337588, 63.31011411309869, 62.57945242992893 
-169.75380328848468, 7.74709164186879, 21.05602092178845, -41.03819176366363, 63.7505690909245, 62.575477732629935 
-170.65492503400066, 7.466839678401764, 21.056190709250604, -41.351690669441226, 64.19253486367792, 62.571536807833695 
-171.55665210031273, 7.190324251544024, 21.056352252941235, -41.65931410331851, 64.6359713910218, 62.567631409664386 
-172.45901732480306, 6.9176161368158215, 21.0565057387477, -41.960787178719265, 65.08083807634038, 62.56376328804758 
-173.36205168742654, 6.648785455846337, 21.056651357413692, -42.25581316295868, 65.52709370650322, 62.55993418749814 
-174.26578430178523, 6.383901657120943, 21.05678930418982, -42.54407135082818, 65.97469638456062, 62.556145845901696 
-175.17024240717845, 6.123033495769347, 21.05691977847998, -42.825214689283314, 66.42360345440916, 62.55239999328993 
-176.07545136169165, 5.866249012419589, 21.057042983484298, -43.09886711877067, 66.8737714163115, 62.548698350611986 
-176.9814346363885, 5.613615511145039, 21.05715912583878, -43.36462059121997, 67.32515583197231, 62.54504262850233 
-177.8882138106727, 5.365199536533937, 21.0572684152525, -43.622031718216604, 67.77771121765657, 62.54143452604667 
-178.79580856888626, 5.121066849913572, 21.057371064142437, -43.87061799515429, 68.23139092357904, 62.53787572954723 
-179.7042366982122, 4.881282404763614, 21.057467287266732, -44.10985353799804, 68.68614699748694, 62.534367911288705 
179.38648591204964, 4.645910321355534, 21.05755730135673, -44.33916425835708, 69.14193002999129, 62.53091272830577 
178.47634526976535, 4.415013860657435, 21.057641324748257, -44.55792238949754, 69.59868897876082, 62.52751182115368 
177.56532927774077, 4.188655397546351, 21.057719577012666, -44.76544026024685, 70.05637096816079, 62.524166812683745 
176.65342772991755, 3.966896393372055, 21.057792278588202, -44.9609631948744, 70.51492106027628, 62.52087930682373 
175.74063230592617, 3.749797367919267, 21.057859650411974, -45.14366139425204, 70.97428199247746, 62.5176508873658 
174.8269365639303, 3.537417870817137, 21.05792191355329, -45.31262062599628, 71.43439387573268, 62.51448311676239 
173.91233593169926, 3.32981645244744, 21.057979288848575, -45.466831517736026, 71.89519384670868, 62.51137753493177 
172.99682769584723, 3.127050634404993, 21.058031996538528, -45.60517720670405, 72.35661566526396, 62.50833565807438 
172.08041098918125, 2.929176879566017, 21.058080255907907, -45.72641904870961, 72.81858924717166, 62.50535897750119 
171.1630867761019, 2.7362505618223443, 21.05812428492851, -45.82918002792415, 73.28104011971334, 62.502448958475526 
170.24485783600446, 2.5483259355411167, 21.05816429990564, -45.911925432890335, 73.74388878505071, 62.49960703906976 
169.32572874463239, 2.3654561048116896, 21.05820051512876, -45.97294027003328, 74.20704997285924, 62.4968346290374 
168.40570585333836, 2.187692992543161, 21.05823314252663, -46.01030276897228, 74.67043175940064, 62.49413310870285 
167.48479726621326, 2.015087309477403, 21.058262391327343, -46.02185318801735, 75.13393452476734, 62.49150382786927 
166.56301281504798, 1.8476885231841385, 21.058288467723973, -46.00515694559744, 75.59744971311008, 62.48894810474632 
165.64036403209795, 1.6855448271056441, 21.0583115745459, -45.95746087399145, 76.06085835181959, 62.48646722489831 
164.71686412062652, 1.5287031097200303, 21.05833191093656, -45.87564110277775, 76.52402927427163, 62.48406244021495 
163.7925279232084, 1.3772089238928062, 21.058349672037874, -45.75614071443883, 76.98681697607319, 62.48173496790479 
162.867371887781, 1.2311064564872243, 21.05836504868185, -45.594894852603446, 77.44905901568671, 62.4794859895132 
161.94141403143712, 1.090438498304405, 21.05837822708968, -45.38724037801681, 77.91057284541657, 62.477316649966006 
161.01467390196078, 0.9552464144246013, 21.05838938857885, -45.12780642554521, 78.37115192605103, 62.47522805663923 
160.08717253711237, 0.8255701150210202, 21.058398709278574, -44.81038127730597, 78.83056093529997, 62.47322127845693 
159.15893242167886, 0.7014480267174732, 21.058406359853855, -44.42774978570301, 79.28852982292605, 62.47129734501746 
158.2299774423098, 0.582917064560699, 21.058412505238753, -43.97149410548042, 79.74474638921097, 62.469457245749446 
157.30033284016875, 0.4700126046777598, 21.058417304378956, -43.43174868052705, 80.1988469614747, 62.467701929098695 
156.37002516143627, 0.36276845768773763, 21.058420909984196, -42.796898258344434, 80.65040460686734, 62.46603230174631 
155.4390822057081, 0.2612168429361254, 21.058423468290734, -42.05320521874135, 81.09891413689581, 62.46444922785975 
154.50753297234004, 0.16538836361879194, 21.058425118834222, -41.184349901335665, 81.54377291531006, 62.462953528377184 
153.57540760479768, 0.075311982860728, 21.05842599423334, -40.170865416863926, 81.98425615848197, 62.46154598032604 
152.64273733307718, -0.008984999186973937, 21.05842621998436, -38.98944779179661, 82.41948499824544, 62.46022731617693 
151.70955441426977, -0.08747696717065216, 21.05842591426702, -37.61212563768428, 82.84838504981298, 62.458998223232996 
150.77589207134997, -0.1601400112192878, 21.058425187761873, -36.00528563088664, 83.26963260413483, 62.45785934305631 
149.84178443027457, -0.22695194643505417, 21.05842414347945, -34.12858001008893, 83.68158492018394, 62.45681127093122 
148.90726645548548, -0.28789233113581486, 21.05842287660141, -31.933806560888826, 84.0821906494144, 62.45585455536575 
147.97237388391576, -0.3429424837991687, 21.058421474333834, -29.36397843934345, 84.46887671416617, 62.45498969763155 
147.03714315760496, -0.3920854986610341, 21.05842001577297, -26.353034404509454, 84.83841012594657, 62.45421715134269 
146.1016113550342, -0.43530625992503585, 21.058418571783537, -22.82703388564488, 85.18673948159686, 62.4535373220744 
145.16581612129755, -0.47259145454289503, 21.058417204889764, -18.708264460025923, 85.50883496715383, 62.45295056702148 
144.22979559723075, -0.5039295835296457, 21.058415969179276, -13.924347672332964, 85.7985725876194, 62.45245719469734 
143.29358834762223, -0.529310971781581, 21.058414910220016, -8.424647336381513, 86.04875073138783, 62.45205746467385 
142.3572332886357, -0.5487277763690364, 21.058414064990306, -2.2048227764776582, 86.25137487596392, 62.45175158736218 
141.42076961457656, -0.5621739932802607, 21.05841346182205, 4.664491238214913, 86.39835776118323, 62.45153972383519 
140.48423672413716, -0.5696454625970969, 21.05841312035728, 12.01713279403811, 86.48267992290242, 62.451421985691354 
139.54767414625815, -0.5711398720876276, 21.058413051518006, 19.59695358029323, 86.4997891439774, 62.45139843496036 
138.61112146574467, -0.5666567592054339, 21.058413257489466, 27.099597571141786, 86.44870977380114, 62.451469084050856 
137.6746182487775, -0.5561975114897352, 21.058413731716787, 34.23752037854404, 86.33230147484521, 62.45163389573968 
136.73820396845898, -0.5397653653652588, 21.058414458915003, 40.79662468101431, 86.1565218597664, 62.45189278320358 
135.80191793053461, -0.5173654033452856, 21.05841541509255, 46.65987156386551, 85.92909353836495, 62.45224561009258 
134.8657991994289, -0.48900454964590107, 21.058416567588058, 51.797582890853946, 85.65817499549345, 62.45269219064493 
133.92988652473426, -0.4546915642240954, 21.05841787512046, 56.2407543053308, 85.3514228262375, 62.45323228984433 
132.99421826828868, -0.41443703525674164, 21.058419287852395, 60.05346999530493, 85.01551500832652, 62.45386562361823 
132.05883233197633, -0.36825337008199643, 21.058420747466755, 63.31232076070524, 84.65601959078599, 62.45459185907737 
131.12376608638152, -0.3161547846289671, 21.058422187256234, 66.09390322126639, 84.27745845165303, 62.455410614796655 
130.18905630042312, -0.25815729136564686, 21.058423532225948, 68.46850824200266, 83.8834531989793, 62.45632146113622 
129.2547390720932, -0.19427868579926183, 21.0584246992087, 70.49769071806008, 83.47688809658231, 62.45732392060299 
128.320849760418, -0.12453853156706551, 21.05842559699308, 72.23395467320479, 83.06005964062363, 62.45841746825208 
127.3874229187549, -0.04895814415934801, 21.058426126463882, 73.72143977918435, 82.6348022812887, 62.459601532127365 
126.45449222953424, 0.032439426679919746, 21.058426180754946, 74.99698508379782, 82.20258938351961, 62.46087549374093 
125.52209044054807, 0.11962941582612804, 21.058425645414037, 76.09125260845933, 81.76461236415163, 62.46223868859073 
124.59024930288241, 0.21258536286873564, 21.0584243985796, 77.02976708472525, 81.32184197246026, 62.46369040671586 
123.65899951058343, 0.31127913337288304, 21.05842231116917, 77.83381922010336, 80.87507550859408, 62.46522989328881 
122.72837064214025, 0.4156809412501524, 21.058419247079225, 78.5212242866067, 80.42497318888354, 62.4668563492437 
121.79839110386168, 0.5257593721785154, 21.058415063396072, 79.10694732384508, 79.97208621758949, 62.46856893194044 
120.86908807521574, 0.6414814080090169, 21.05840961061767, 79.60361315872352, 79.51687854517382, 62.470366755863125 
119.94048745619422, 0.7628124520948848, 21.058402732885973, 80.02192038163057, 79.05974382045277, 62.47224889335265 
119.0126138167575, 0.8897163554769132, 21.05839426822955, 80.37097679682842, 78.60101867525724, 62.474214375372085 
118.0854903484066, 1.0221554438575309, 21.058384048816087, 80.65857136909871, 78.14099319937469, 62.47626219230433 
117.15913881792291, 1.1600905452946948, 21.058371901214564, 80.89139510508731, 77.6799192522975, 62.47839129478088 
116.23357952330811, 1.3034810185457255, 21.058357646666593, 81.07522096568508, 77.21801710032776, 62.48060059454054 
115.30883125194956, 1.4522847819904379, 21.05834110136673, 81.21505091246392, 76.75548074965306, 62.48288896531791 
114.38491124102941, 1.6064583430625583, 21.05832207675124, 81.3152365519454, 76.2924822578772, 62.48525524375949 
113.46183514018837, 1.7659568281179372, 21.05830037979508, 81.37957851976051, 75.82917524045276, 62.487698230367066 
112.53961697644806, 1.9307340126682204, 21.05827581331657, 81.41140869316747, 75.36569773879063, 62.49021669046726 
111.61826912138967, 2.1007423519087234, 21.05824817628941, 81.41365848584725, 74.90217457928556, 62.49280935520575 
110.69780226057902, 2.275933011469836, 21.058217264161705, 81.38891581986243, 74.43871932398888, 62.49547492256546 
109.77822536522348, 2.456255898321634, 21.0581828691814, 81.33947284968569, 73.9754358918932, 62.49821205840719 
108.85954566603834, 2.641659691762562, 21.058144780727925, 81.26736610267619, 73.51241991308113, 62.50101939753192 
107.94176862929648, 2.8320918744237495, 21.058102785649353, 81.17441037573005, 73.04975986508938, 62.5038955447629 
107.02489793502784, 3.0274987632219714, 21.058056668604898, 81.06222747047526, 72.58753803082341, 62.50683907604739 
106.10893545733208, 3.2278255401954277, 21.058006212412078, 80.93227064478789, 72.1258313095415, 62.50984853957554 
105.19388124676165, 3.433016283158296, 21.057951198398193, 80.78584549522984, 71.66471190629171, 62.51292245691628 
104.27973351472919, 3.6430139961113186, 21.057891406755665, 80.62412785441903, 71.20424792034677, 62.51605932416826 
103.36648861988837, 3.857760639347917, 21.057826616900734, 80.44817918245424, 70.74450384934421, 62.51925761312496 
102.45414105643475, 4.077197159196894, 21.057756607835035, 80.25895984696365, 70.28554102278167, 62.52251577245227 
101.54268344426917, 4.301263517344915, 21.057681158509606, 80.0573406179308, 69.82741797606923, 62.525832228878045 
100.63210652096386, 4.529898719684294, 21.057600048190853, 79.84411264789081, 69.37019077436997, 62.5292053883912 
99.72239913546917, 4.763040844633376, 21.05751305682791, 79.61999616279915, 68.91391329386927, 62.53263363745026 
98.81354824349633, 5.000627070879534, 21.057419965421065, 79.38564805182388, 68.45863746682002, 62.536115344199104 
97.90553890451093, 5.242593704496778, 21.05732055639066, 79.14166851389129, 68.00441349565901, 62.539648859689336 
96.9983542802694, 5.488876205392618, 21.05721461394586, 78.88860689374957, 67.55129004062574, 62.54323251910745 
96.09197563483131, 5.739409213040949, 21.057101924453182, 78.62696681959227, 67.09931438460849, 62.546864643005776 
95.18638233597851, 5.994126571460516, 21.056982276803858, 78.35721073709094, 66.64853257835581, 62.55054353853598 
94.28155185797323, 6.252961353400588, 21.056855462779822, 78.07976392037838, 66.19898956870944, 62.55426750068367 
93.37745978558642, 6.515845883698279, 21.05672127741781, 77.7950180285752, 65.75072931211113, 62.5580348135029 
92.47407981932923, 6.7827117617741015, 21.056579519370946, 77.50333426644563, 65.30379487530128, 62.561843751349414 
91.57138378182073, 7.053489883235037, 21.056429991267567, 77.20504619936001, 64.85822852484615, 62.56569258011117 
90.66934162522617, 7.32811046055672, 21.056272500066566, 76.90046226565632, 64.4140718068951, 62.56957955843523 
89.76792143970275, 7.606503042818655, 21.056106857409002, 76.589868023506, 63.971365618370854, 62.5735029389494 
88.86708946278993, 7.8885965344690305, 21.05593287996535, 76.27352816431429, 63.530150270628255, 62.577460969477805 
87.96681008968525, 8.174319213097657, 21.055750389778066, 75.95168832037398, 63.09046554647516, 62.581451894248964 
87.06704588434742, 8.463598746198233, 21.05555921459886, 75.6245766908167, 62.65235075132809, 62.58547395509515 
86.16775759137289, 8.7563622069031, 21.055359188220365, 75.29240550676819, 62.21584475917328, 62.589525392642294 
85.26890414859288, 9.052536088676103, 21.055150150801776, 74.95537235392482, 61.780986053915214, 62.59360444748862 
84.37044270034335, 9.352046318951068, 21.054931949187843, 74.61366136846281, 61.347812766620365, 62.59770936137164 
83.47232861136138, 9.654818271705881, 21.054704437220966, 74.26744432020467, 60.916362709098614, 62.60183837832169 
82.57451548126741, 9.960776778963767, 21.054467476045975, 73.9168815952551, 60.486673404209775, 62.605989745801786 
81.67695515959441, 10.269846141215773, 21.054220934407063, 73.56212308883863, 60.058782113234834, 62.61016171583178 
80.77959776133055, 10.581950136760275, 21.05396468893659, 73.20330901778767, 59.63272586060936, 62.61435254609672 
79.8823916829455, 10.897012029957015, 21.05369862443531, 72.84057066101724, 59.20854145628197, 62.6185605010378 
78.98528361887462, 11.214954578395538, 21.053422634143697, 72.47403103535265, 58.78626551592778, 62.62278385292506 
78.08821857844075, 11.535700038979082, 21.053136620003926, 72.1038055132332, 58.36593447922169, 62.62702088291134 
77.19113990319639, 11.859170172927408, 21.052840492912214, 71.7300023880759, 57.947584626350654, 62.63126988206585 
76.293989284676, 12.185286249703042, 21.052534172961185, 71.35272339243907, 57.53125209292535, 62.63552915238709 
75.39670678255077, 12.513969049867944, 21.052217589671866, 70.97206417355837, 57.11697288343185, 62.63979700779388 
74.49923084318549, 12.845138866878404, 21.051890682215085, 70.58811473033188, 56.704782883349374, 62.64407177509401 
73.60149831860105, 13.178715507828272, 21.051553399621838, 70.20095981539265, 56.294717870045496, 62.64835179492943 
72.70344448585178, 13.514618293151857, 21.051205700982493, 69.81067930552138, 55.88681352254804, 62.65263542269743 
71.80500306683284, 13.852766055299604, 21.050847555634366, 69.4173485433126, 55.4811054302826, 62.656921029446906 
70.906106248538, 14.193077136401069, 21.050478943337655, 69.02103865270523, 55.07762910085409, 62.661207002749194 
70.00668470379408, 14.535469384931426, 21.050099854439154, 68.62181683072275, 54.67641996694354, 62.665491747542816 
69.10666761250452, 14.879860151399349, 21.049710290023796, 68.21974661753099, 54.27751339238267, 62.6697736869513 
68.20598268344023, 15.226166283075322, 21.04931026205369, 67.8148881467119, 53.880944677463106, 62.67405126307372 
