# MEX_intpoint_lon [deg], MEX_intpoint_lat [deg], MEX_intpoint_angle [deg], TGO_intpoint_lon [deg], TGO_intpoint_lat [deg], TGO_intpoint_angle [deg] 
-139.38415987825374, 19.606952395492165, 21.82030536677246, -27.390926640362807, 40.34816026912372, 62.913802149755185 
-140.27329401523144, 19.20206778895937, 21.820912232104654, -27.652277463071254, 40.76044608058829, 62.90911366887597 
-141.16080355376295, 18.79833224909411, 21.8215067905808, -27.908338309862668, 41.17523034617586, 62.904387786824216 
-142.046793588947, 18.395840011849007, 21.822088875931623, -28.159003268200713, 41.59245468702232, 62.89962599014589 
-142.93136753535194, 17.99468465174028, 21.822658336798884, -28.404162305119193, 42.01206015080806, 62.89482981156549 
-143.81462710779098, 17.594959106481333, 21.823215036750234, -28.64370104271426, 42.43398717938983, 62.89000082945237 
-144.6966723030877, 17.19675570054512, 21.823758854276143, -28.877500522411363, 42.85817557399008, 62.88514066723203 
-145.57760138268213, 16.800166167621835, 21.824289682768903, -29.105436957354037, 43.284564457808116, 62.88025099274273 
-146.45751085594273, 16.405281671940024, 21.82480743048363, -29.32738147222313, 43.713092235907695, 62.87533351753765 
-147.33649546405715, 16.012192828421465, 21.82531202048164, -29.543199829755856, 44.143696552223844, 62.870389996132914 
-148.21464816438828, 15.620989721641443, 21.825803390556015, -29.75275214319214, 44.576314243520244, 62.865422225202124 
-149.0920601151906, 15.231761923568003, 21.826281493139728, -29.955892573833275, 45.010881290114874, 62.8604320427172 
-149.96882066059186, 14.84459851005515, 21.826746295196315, -30.152469012853093, 45.447332763178, 62.85542132703685 
-150.8450173157569, 14.459588076066048, 21.827197778093396, -30.34232274645694, 45.88560276839139, 62.85039199594261 
-151.72073575215617, 14.076818749604195, 21.827635937459117, -30.52528810343614, 46.32562438574089, 62.84534600562333 
-152.5960597828744, 13.69637820433117, 21.82806078302193, -30.70119208411918, 46.7673296051977, 62.84028534960875 
-153.47107134790113, 13.318353670851252, 21.828472338433613, -30.869853969672224, 47.21064925802385, 62.8352120576529 
-154.34585049935473, 12.942831946643937, 21.828870641076247, -31.031084910654116, 47.65551294341794, 62.830128194568076 
-155.22047538659874, 12.569899404627146, 21.82925574185294, -31.184687493683658, 48.10184895019434, 62.82503585901011 
-156.09502224121917, 12.199642000334308, 21.829627704962963, -31.33045528503086, 48.54958417316673, 62.81993718221631 
-156.96956536183748, 11.832145277690348, 21.829986607661468, -31.468172349900563, 48.998644023880125, 62.81483432669648 
-157.84417709874316, 11.467494373372352, 21.830332540004065, -31.597612746135418, 49.448952335310025, 62.80972948487819 
-158.71892783833607, 11.105774019742082, 21.8306656045767, -31.718539991030582, 49.90043126011696, 62.80462487770775 
-159.59388598737772, 10.74706854633866, 21.83098591621125, -31.830706499921142, 50.353001162014614, 62.799522753207384 
-160.4691179570555, 10.391461879921108, 21.83129360168702, -31.933852995182935, 50.80658049977606, 62.79442538499045 
-161.3446881468734, 10.039037543051748, 21.831588799418775, -32.027707884275216, 51.26108570336728, 62.7893350707352 
-162.22065892838793, 9.689878651212766, 21.831871659131586, -32.111986605455755, 51.71643104165997, 62.78425413061939 
-163.09709062881456, 9.34406790845006, 21.832142341522957, -32.18639093981727, 52.172528481135004, 62.77918490571598 
-163.97404151453833, 9.001687601539555, 21.83240101791274, -32.2506082883326, 52.62928753494613, 62.77412975635214 
-164.8515677745656, 8.662819592673419, 21.83264786988117, -32.30431091266005, 53.08661510166863, 62.76909106043271 
-165.72972350396358, 8.327545310664776, 21.83288308889568, -32.34715513855483, 53.544415293010914, 62.76407121172962 
-166.60856068733693, 7.995945740671941, 21.833106875926838, -32.37878052086416, 54.00258924971751, 62.75907261813893 
-167.48812918239904, 7.668101412444612, 21.833319441053984, -32.39880896926089, 54.46103494484152, 62.75409769990708 
-168.36847670370014, 7.344092387096982, 21.833521003061104, -32.40684383410143, 54.919646973511206, 62.749148887827864 
-169.24964880657933, 7.023998242414665, 21.83371178902339, -32.402468952090295, 55.37831632826141, 62.74422862141223 
-170.13168887141416, 6.707898056704655, 21.83389203388515, -32.38524765180769, 55.83693015894608, 62.739339347032164 
-171.01463808824533, 6.395870391199922, 21.834061980029517, -32.3547217196231, 56.295371516192475, 62.73448351604078 
-171.89853544185866, 6.08799327103303, 21.834221876840548, -32.31041032709472, 56.75351907730427, 62.72966358287059 
-172.7834176974123, 5.784344164795381, 21.834371980258354, -32.25180892166061, 57.21124685346797, 62.72488200311137 
-173.6693193866995, 5.484999962701688, 21.834512552327766, -32.178388083287494, 57.66842387706966, 62.720141231570096 
-174.55627279514255, 5.190036953382285, 21.834643860741107, -32.089592350783, 58.12491386788477, 62.71544372031461 
-175.4443079496166, 4.899530799328406, 21.834766178375833, -31.984839022727368, 58.5805748768699, 62.710791916702924 
-176.333452607205, 4.613556511019167, 21.83487978282738, -31.86351693947866, 59.03525890626047, 62.70618826140076 
-177.2237322449911, 4.332188419761687, 21.83498495593811, -31.724985254488555, 59.488811504668405, 62.701635186388614 
-178.1151700509938, 4.055500149279361, 21.835081983322738, -31.568572205282095, 59.941071335883706, 62.697135112961256 
-179.00778691635594, 3.7835645860863796, 21.835171153891075, -31.393573896954372, 60.39186972011676, 62.692690449721034 
-179.90160142889658, 3.5164538486902788, 21.8352527593685, -31.199253113976035, 60.841030146482225, 62.68830359056809 
179.20337013186054, 3.2542392556674296, 21.835327093814904, -30.98483817954267, 61.28836775562912, 62.683976912688486 
178.30711379807002, 2.996991292660121, 21.835394453142786, -30.749521885715968, 61.73368879157218, 62.67971277454359 
177.4096179152462, 2.7447795783473845, 21.83545513463501, -30.49246052226262, 62.17679002198929, 62.675513513862256 
176.5108731421299, 2.497672829445111, 21.83550943646286, -30.21277303747291, 62.61745812653309, 62.671381445638445 
175.61087244862955, 2.255738824794868, 21.835557657205257, -29.909540370415964, 63.055469053073246, 62.66731886013606 
174.70961111172568, 2.019044368603953, 21.8356000953693, -29.58180500113297, 63.490587342262266, 62.66332802090379 
173.80708670923107, 1.7876552529032552, 21.83563704891335, -29.228570773255615, 63.922565421416955, 62.659411162801966 
172.90329911130067, 1.5616362192923663, 21.835668814772717, -28.84880305251488, 64.3511428694583, 62.65557049004379 
171.99825046958873, 1.3410509200453729, 21.835695688388977, -28.4414292946096, 64.7760456555763, 62.6518081742533 
171.09194520395522, 1.1259618786535877, 21.835717963243372, -28.00534010693045, 65.19698535541434, 62.648126352541816 
170.18438998662637, 0.9164304498849538, 21.83573593039485, -27.539390900631453, 65.6136583499316, 62.64452712560628 
169.27559372372127, 0.7125167794427729, 21.835749878023506, -27.042404242385864, 66.02574501373259, 62.641012555850416 
168.36556753406063, 0.5142797633095583, 21.8357600909799, -26.513173028642484, 66.43290890158612, 62.63758466553195 
167.45432472518067, 0.321777006864129, 21.835766850340864, -25.95046461897326, 66.83479594412458, 62.63424543493769 
166.54188076648208, 0.13506478386313378, 21.835770432972485, -25.35302607868219, 67.23103366634581, 62.63099680058881 
165.62825325945147, -0.045802004619943326, 21.83577111110061, -24.719590693537654, 67.62123044556105, 62.627840653478415 
164.7134619049002, -0.22076987120284589, 21.83576915188977, -24.04888593037028, 68.00497482885203, 62.624778837343904 
163.79752846717508, -0.3897867830525006, 21.835764817030736, -23.3396430251355, 68.38183493391581, 62.62181314697558 
162.88047673530397, -0.5528022024941318, 21.835758362337483, -22.590608383345565, 68.75135796136104, 62.61894532656452 
161.96233248104832, -0.7097671272715683, 21.835750037354014, -21.80055697464597, 69.11306985100909, 62.61617706809096 
161.0431234138461, -0.8606341303577828, 21.83574008497152, -20.968307891500714, 69.46647511945152, 62.61351000975578 
160.12287913263808, -1.0053573992140494, 21.835728741056474, -20.092742218867702, 69.81105692085873, 62.61094573445676 
159.20163107458097, -1.1438927743960057, 21.835716234090107, -19.172823324521065, 70.14627737760743, 62.60848576831171 
158.279412460663, -1.2761977874048362, 21.835702784819652, -18.207619625297614, 70.47157823139416, 62.60613157923032 
157.35625823824782, -1.4022316976823535, 21.835688605922034, -17.196329810064363, 70.78638186874764, 62.6038845755365 
156.43220502058546, -1.5219555286495805, 21.835673901680206, -16.138310403074954, 71.09009277677072, 62.601746104643105 
155.50729102333867, -1.6353321026897376, 21.835658867672727, -15.033105429883475, 71.38209948497469, 62.59971745178056 
154.5815559981872, -1.7423260749780418, 21.835643690476914, -13.880477801787867, 71.66177704658868, 62.59779983878154 
153.65504116358252, -1.842903966063074, 21.835628547386033, -12.680441865592257, 71.92849010706499, 62.59599442292247 
152.72778913273726, -1.937034193106446, 21.835613606140768, -11.43329637777243, 72.18159659800253, 62.59430229582419 
151.79984383894643, -2.0246870996909054, 21.83559902467546, -10.13965696377336, 72.42045208079996, 62.592724482412585 
150.87125045834733, -2.105834984109763, 21.835584950879454, -8.800486925943348, 72.64441474562415, 62.591261939941205 
149.9420553302367, -2.180452126054525, 21.835571522373723, -7.417125083359415, 72.85285104762124, 62.58991555707645 
149.01230587507422, -2.248514811621357, 21.8355588663032, -5.991309183052572, 73.04514193398803, 62.58868615304704 
148.0820505103119, -2.3100013565615884, 21.835547099145096, -4.525193337028281, 73.22068958334776, 62.58757447685883 
147.15133856419786, -2.3648921277060935, 21.83553632653335, -3.0213579358033837, 73.37892454421717, 62.58658120657567 
146.22022018771338, -2.4131695624983776, 21.835526643099577, -1.4828105876775022, 73.5193131241979, 62.585706948667955 
145.288746264809, -2.4548181865767575, 21.835518132330577, 0.08702315110744718, 73.64136484842444, 62.584952237428965 
144.35696832111472, -2.489824629351487, 21.83551086644277, 1.68432015062695, 73.74463977770284, 62.58431753446021 
143.42493843130586, -2.51817763752877, 21.83550490627358, 3.304891624297825, 73.82875545677507, 62.58380322822663 
142.49270912531148, -2.5398680865395615, 21.83550030118995, 4.944226473270462, 73.89339325414029, 62.58340963368171 
141.56033329355998, -2.554888989837748, 21.835497089014144, 6.597545327622886, 73.93830385914382, 62.583136991963386 
140.62786409145806, -2.563235506038447, 21.83549529596695, 8.259863925088595, 73.9633117209052, 62.582985470161496 
139.69535484330558, -2.564904943874201, 21.83549493662823, 9.92606388160938, 73.96831824708597, 62.58295516115594 
138.76285894584976, -2.5598967649534843, 21.83549601391506, 11.590968420795987, 73.95330362700611, 62.5830460835272 
137.83042977168432, -2.5482125843128234, 21.83549851907732, 13.249420291784597, 73.91832720029045, 62.58325818153836 
136.89812057270052, -2.529856168760845, 21.835502431710857, 14.896358953346438, 73.86352635496831, 62.58359132518884 
135.9659843837961, -2.504833433019408, 21.835507719788136, 16.52689415312639, 73.78911400294204, 62.584045310340116 
135.03407392704665, -2.4731524336739743, 21.835514339706357, 18.1363732789151, 73.69537474101695, 62.58461985891286 
134.10244151654308, -2.4348233609521532, 21.83552223635296, 19.72044027684189, 73.58265985772212, 62.5853146191555 
133.17113896409413, -2.3898585283561977, 21.83553134318855, 21.275084475095294, 73.45138138639956, 62.58612916598353 
132.24021748598966, -2.338272360181693, 21.835541582346853, 22.79667826657284, 73.30200543127526, 62.58706300138954 
131.30972761101555, -2.2800813769613857, 21.835552864751907, 24.282003232415263, 73.1350450047109, 62.588115554923135 
130.37971908990477, -2.215304178879129, 21.83556509025209, 25.72826487811967, 72.95105261123918, 62.58928618423987 
129.45024080640232, -2.1439614272051415, 21.835578147770907, 27.13309666279773, 72.75061279915091, 62.590574175719226 
128.5213406901156, -2.0660758238094252, 21.835591915474332, 28.494554402041892, 72.53433487596995, 62.5919787451499 
127.59306563131167, -1.9816720888159245, 21.83560626095443, 29.811102402533905, 72.30284595316706, 62.59349903848207 
126.66546139781559, -1.8907769364649132, 21.83562104142912, 31.081592842321957, 72.05678445098896, 62.595134132645434 
125.73857255415412, -1.7934190492563484, 21.835636103957658, 32.305239955770425, 71.7967941590855, 62.59688303643192 
124.81244238307872, -1.6896290504511369, 21.835651285671744, 33.48159053499683, 71.52351891499416, 62.5987446914421 
123.88711280959186, -1.579439475011747, 21.83566641402176, 34.61049214231798, 71.23759793216338, 62.600717973093644 
122.96262432758971, -1.4628847390672515, 21.835681307037955, 35.69206026359038, 70.93966178314867, 62.60280169169088 
122.03901592922301, -1.3400011079913343, 21.83569577360614, 36.72664544136623, 70.63032902241581, 62.60499459355387 
121.11632503706652, -1.2108266631849485, 21.835709613757597, 37.71480122726762, 70.31020341690224, 62.60729536220545 
120.194587439176, -1.0754012676578184, 21.835722618972763, 38.657253598732055, 69.97987174084658, 62.60970261961493 
119.27383722710012, -0.9337665305054093, 21.835734572498275, 39.55487230608159, 69.639902083895, 62.612214927496574 
118.35410673690204, -0.7859657703795615, 21.83574524967709, 40.40864445780896, 69.29084261750617, 62.614830788661216 
117.43542649323541, -0.6320439780527783, 21.835754418291003, 41.219650518056035, 68.93322076353462, 62.61754864841942 
116.51782515650615, -0.4720477781769016, 21.835761838915403, 41.989042781087655, 68.56754270992147, 62.620366896034305 
115.60132947314084, -0.30602539033777276, 21.83576726528552, 42.71802630203899, 68.19429322106882, 62.62328386622198 
114.68596422897168, -0.13402658950767993, 21.83577044467383, 43.40784219913517, 67.81393569419893, 62.62629784069798 
113.77175220573552, 0.043897334002770044, 21.835771118278196, 44.05975319716008, 67.4269124173789, 62.62940704976761 
112.85871414067594, 0.22769361499187823, 21.835769021619992, 44.67503125216806, 67.03364498958166, 62.632609673957994 
111.94686868922538, 0.4173080541128435, 21.835763884951916, 45.254947080329444, 66.63453486789759, 62.63590384569013 
111.03623239073498, 0.6126850588190419, 21.83575543367482, 45.80076140663394, 66.22996401162182, 62.63928765098867 
110.12681963721123, 0.8137676844105417, 21.835743388763078, 46.31371774952133, 65.82029559728926, 62.64275913122731 
109.2186426450083, 1.020497675085693, 21.83572746719791, 46.79503656330387, 65.4058747827341, 62.646316284907456 
108.31171142941797, 1.232815504903282, 21.835707382408046, 47.245910569782836, 64.98702950187175, 62.649957069468456 
107.40603378209008, 1.450660418563306, 21.83568284471724, 47.66750112238091, 64.56407127511906, 62.653679403126795 
106.5016152512102, 1.6739704719165445, 21.83565356179798, 48.060935459346815, 64.13729602319407, 62.65748116674191 
105.5984591243541, 1.9026825721160405, 21.83561923913081, 48.427304716339705, 63.70698487448185, 62.661360205707034 
104.69656641393273, 2.1367325173261427, 21.835579580468682, 48.76766258237775, 63.27340495825135, 62.66531433186194 
103.7959358451358, 2.3760550359080375, 21.8355342883057, 49.083024496332015, 62.83681017778426, 62.66934132542593 
102.89656384627821, 2.620583825003648, 21.83548306434965, 49.37436729358683, 62.39744195897152, 62.67343893694869 
101.99844454144785, 2.8702515884430517, 21.835425609997742, 49.642629224010484, 61.95552997117377, 62.67760488927651 
101.10156974535144, 3.1249900739040744, 21.835361626814855, 49.88871027289757, 61.51129281816476, 62.681836879531666 
100.20592896025097, 3.384730109255876, 21.835290817013703, 50.113472726033834, 61.06493869781081, 62.686132581102825 
99.31150937488147, 3.649401638022144, 21.83521288393636, 50.31774192851033, 60.61666602981039, 62.690489645644185 
98.41829586523926, 3.9189337539027504, 21.83512753253634, 50.502307194421356, 60.16666405135401, 62.69490570508079 
97.52627099712811, 4.193254734296632, 21.835034469860798, 50.667922831180796, 59.71511338098361, 62.6993783736181 
96.63541503035069, 4.472292072771668, 21.83493340553211, 50.81530924795811, 59.26218655125555, 62.703905249753525 
95.74570592443231, 4.755972510431641, 21.834824052228186, 50.94515412274172, 58.80804851105458, 62.70848391828736 
94.85711934576456, 5.044222066133019, 21.83470612616099, 51.05811360686469, 58.35285709858647, 62.71311195233148 
93.96962867605696, 5.336966065508615, 21.83457934755249, 51.15481354954565, 57.89676348620141, 62.71778691531315 
93.08320502198696, 5.634129168757915, 21.834443441107595, 51.235850728181916, 57.43991259828369, 62.72250636297195 
92.19781722593964, 5.935635397167685, 21.834298136483326, 51.30179407284245, 56.982443503490984, 62.727267845347896 
91.31343187773095, 6.2414081583296275, 21.834143168753602, 51.35318587571041, 56.52448978264648, 62.73206890875808 
90.43001332721148, 6.551370270024913, 21.83397827886916, 51.390542978168064, 56.06617987358752, 62.73690709776053 
89.54752369765016, 6.865443982748827, 21.83380321411188, 51.41435792985232, 55.6076373942552, 62.74177995710269 
88.66592289980102, 7.183551000851447, 21.833617728542986, 51.425100115378434, 55.14898144528085, 62.746685033652696 
87.78516864655954, 7.50561250227358, 21.833421583444473, 51.42321684557022, 54.69032689328492, 62.75161987831158 
86.9052164681202, 7.8315491568595235, 21.833214547753315, 51.40913441098197, 54.231784636058435, 62.75658204790435 
86.02601972754913, 8.161281143231449, 21.83299639848769, 51.383259096276426, 53.77346185074629, 62.761569107048246 
85.14752963669291, 8.494728164212198, 21.83276692116482, 51.3459781546626, 53.315462226098866, 62.76657862999595 
84.26969527234718, 8.831809460786346, 21.83252591020983, 51.297660742116186, 52.85788617980343, 62.771608202452676 
83.39246359261507, 9.172443824591253, 21.832273169355066, 51.238658811523926, 52.40083106185183, 62.77665542336461 
82.51577945339083, 9.51654960893227, 21.832008512029336, 51.16930796722658, 51.94439134484684, 62.781717906677414 
81.63958562490832, 9.864044738318547, 21.831731761736656, 51.089928280697826, 51.48865880209516, 62.78679328306342 
80.76382280830148, 10.214846716517497, 21.831442752423836, 51.00082506829888, 51.03372267428416, 62.79187920161513 
79.88842965212827, 10.568872633128311, 21.83114132883657, 50.90228963220224, 50.57966982548825, 62.79697333150441 
79.01334276881668, 10.926039168676372, 21.830827346863494, 50.794599965690196, 50.12658488920391, 62.80207336360502 
78.13849675099709, 11.286262598232426, 21.83050067386773, 50.67802142411202, 49.67455040506529, 62.807177012077936 
77.26382418769195, 11.649458793561706, 21.830161189005533, 50.55280736283466, 49.223646946850174, 62.81228201591714 
76.38925568034004, 12.015543223809951, 21.829808783531565, 50.41919974354935, 48.773953242343886, 62.817386140455376 
75.51471985863996, 12.384430954734585, 21.829443361090362, 50.27742971030645, 48.325546285590555, 62.82248717882807 
74.64014339620361, 12.75603664649069, 21.829064837993695, 50.12771813664562, 47.87850144202454, 62.827582953394334 
73.76545102601783, 13.130274549982962, 21.828673143483368, 49.97027614517138, 47.432892546940224, 62.83267131711421 
72.89056555572027, 13.50705850179562, 21.828268219979098, 49.80530560089838, 46.988791997726935, 62.83775015488035 
72.01540788270144, 13.886301917714118, 21.827850023311164, 49.6329995796573, 46.546270840265095, 62.84281738480382 
71.1398970090546, 14.267917784852914, 21.82741852293749, 49.453542812814376, 46.10539884985219, 62.84787095945275 
70.2639500564007, 14.651818652405613, 21.826973702144798, 49.26711210951445, 45.66624460700044, 62.85290886704252 
