# MEX_intpoint_lon [deg], MEX_intpoint_lat [deg], MEX_intpoint_angle [deg], TGO_intpoint_lon [deg], TGO_intpoint_lat [deg], TGO_intpoint_angle [deg] 
-139.44630346389576, 19.621197956653507, 21.86354570090149, -27.34756983449504, 39.825271214474526, 62.92516080290289 
-140.33399443351317, 19.21403210400046, 21.864157650854203, -27.60177182858111, 40.239144423069014, 62.920465314670786 
-141.22006142141942, 18.808028276195525, 21.86475713100117, -27.85058061362662, 40.65548814608891, 62.91573147881898 
-142.10461046357207, 18.40328090307853, 21.8653439737716, -28.093889125167447, 41.07424257623861, 62.91096078523339 
-142.9877458857617, 17.99988375241369, 21.865918026703408, -28.331586181732668, 41.495347303720024, 62.90615477111414 
-143.86957028536105, 17.59792995509188, 21.866479152457956, -28.563556263683914, 41.91874128234049, 62.90131502043894 
-144.75018451402318, 17.197512029234414, 21.86702722881672, -28.78967928131073, 42.344362793116645, 62.896443163370655 
-145.6296876611781, 16.798721903165774, 21.867562148659697, -29.00983033157996, 42.772149405238075, 62.89154087560848 
-146.50817703819249, 16.40165093722372, 21.86808381992574, -29.223879442905023, 43.20203793424497, 62.88660987768369 
-147.385748163064, 16.00638994437788, 21.868592165554798, -29.431691307266696, 43.633964397262226, 62.88165193420002 
-148.262494745537, 15.613029209628863, 21.869087123412353, -29.63312499898298, 44.06786396512167, 62.87666885301877 
-149.13850867253353, 15.221658508162154, 21.869568646195994, -29.828033679389467, 44.50367091119043, 62.871662484389844 
-150.01387999380526, 14.832367122231918, 21.870036701324434, -30.016264286656373, 44.94131855671029, 62.8666347200282 
-150.88869690772165, 14.445243856751475, 21.870491270809083, -30.197657209931133, 45.38073921243846, 62.86158749213739 
-151.76304574711884, 14.060377053568553, 21.870932351108355, -30.372045946959734, 45.82186411636365, 62.85652277237986 
-152.63701096514347, 13.677854604404374, 21.871359952965015, -30.53925674430303, 46.26462336725547, 62.85144257079526 
-153.51067512103342, 13.297763962437076, 21.871774101226748, -30.69910821922928, 46.708945853785984, 62.84634893466741 
-154.38411886578837, 12.92019215251083, 21.872174834650117, -30.85141096232999, 47.15475917894399, 62.84124394734026 
-155.2574209276885, 12.545225779953478, 21.872562205688478, -30.995967119873807, 47.601989579440655, 62.83612972698482 
-156.1306580976311, 12.172951037986204, 21.87293628026377, -31.132569954884286, 48.05056183978375, 62.831008425316455 
-157.00390521426021, 11.803453713710347, 21.8732971375228, -31.261003385902143, 48.500399200673805, 62.8258822262649 
-157.87723514887355, 11.436819192657124, 21.87364486957826, -31.381041502372177, 48.95142326134983, 62.82075334459708 
-158.75071879009863, 11.07313246188765, 21.87397958123473, -31.492448055581953, 49.4035538754855, 62.81562402449461 
-159.6244250283368, 10.712478111631464, 21.874301389700257, -31.594975924074106, 49.85670904020848, 62.81049653808608 
-160.49842073998147, 10.354940335453342, 21.87461042428369, -31.688366552459584, 50.31080477778409, 62.8053731839367 
-161.37277077142403, 10.00060292893937, 21.874906826078323, -31.772349362577735, 50.76575500947323, 62.80025628549541 
-162.2475379228676, 9.649549286894464, 21.875190747632132, -31.846641135983454, 51.22147142104007, 62.79514818950111 
-163.1227829319757, 9.301862399045463, 21.875462352605293, -31.910945366795854, 51.67786331934907, 62.790051264349955 
-163.9985644573894, 8.95762484424491, 21.875721815415094, -31.96495158402002, 52.13483747945393, 62.78496789842416 
-164.8749390621527, 8.616918783172821, 21.87596932086902, -32.00833464255996, 52.59229798154103, 62.77990049838476 
-165.75196119709304, 8.279825949534942, 21.87620506378635, -32.040753982280684, 53.05014603705026, 62.77485148742909 
-166.6296831842085, 7.946427639758462, 21.876429248608744, -32.0618528546586, 53.50827980325342, 62.769823303515146 
-167.50815520012029, 7.61680470118744, 21.876642089000445, -32.07125751678914, 53.966594185528045, 62.76481839755428 
-168.38742525965455, 7.2910375187829155, 21.87684380743853, -32.06857639280767, 54.42498062652069, 62.75983923157372 
-169.2675391996226, 6.969206000334376, 21.877034634793755, -32.05339920313628, 54.88332688135056, 62.754888276850906 
-170.14854066287424, 6.651389560191768, 21.87721480990264, -32.02529606240432, 55.34151677796127, 62.7499680120216 
-171.03047108270465, 6.337667101529709, 21.877384579131192, -31.98381654742308, 55.79942996168767, 62.74508092116301 
-171.91336966769828, 6.028116997157945, 21.877544195931033, -31.92848873723625, 56.25694162306564, 62.74022949185467 
-172.79727338709964, 5.722817068894981, 21.87769392038832, -31.858818228040985, 56.71392220787852, 62.73541621321806 
-173.6822169568043, 5.421844565524225, 21.877834018766205, -31.774287126698084, 57.17023710840504, 62.730643573937826 
-174.5682328260672, 5.125276139355397, 21.877964763041334, -31.67435302764984, 57.62574633481259, 62.725914060265985 
-175.45535116502944, 4.833187821416448, 21.878086430435058, -31.558447979368445, 58.080304165629514, 62.721230154011586 
-176.3435998531678, 4.545654995304708, 21.878199302939922, -31.42597744799749, 58.53375877623304, 62.716594330517566 
-177.2330044687743, 4.26275236972901, 21.878303666842044, -31.27631928765868, 58.98595184431009, 62.71200905662725 
-178.12358827957553, 3.9845539497778764, 21.878399812240104, -31.10882272901714, 59.43671813129133, 62.70747678864244 
-179.01537223460352, 3.7111330069522497, 21.878488032561403, -30.922807400170694, 59.8858850388281, 62.702999970275336 
-179.90837495743222, 3.4425620480047403, 21.878568624075818, -30.71756239680209, 60.33327213948645, 62.698581030596635 
179.19738725910656, 3.1789127826308254, 21.878641885408125, -30.49234542185648, 60.778690680977874, 62.694222381981774 
178.30190045661072, 2.92025609006097, 21.878708117049424, -30.246382018832726, 61.22194306344276, 62.68992641805798 
177.40515301308506, 2.6666619846064323, 21.87876762086829, -29.978864927162267, 61.66282228955965, 62.68569551165394 
176.5071356430908, 2.4181995802148095, 21.878820699622228, -29.688953593145534, 62.101111387585, 62.68153201275481 
175.6078413959543, 2.174937054095476, 21.878867656470195, -29.375773875576126, 62.53658280784523, 62.67743824646461 
174.70726565192072, 1.9369416094781313, 21.878908794486648, -29.038417991550663, 62.96899779372594, 62.67341651097853 
173.80540611614254, 1.7042794375718142, 21.878944416178, -28.675944755070752, 63.39810572884487, 62.669469075567264 
172.90226281039352, 1.4770156787948647, 21.878974823001812, -28.28738016890684, 63.82364346288114, 62.66559817857591 
171.99783806240347, 1.2552143833499982, 21.879000314889666, -27.87171843880003, 64.2453346194803, 62.66180602543964 
171.09213649271248, 1.0389384712220737, 21.879021189774043, -27.427923488376095, 64.66288889079048, 62.658094786718614 
170.1851649989473, 0.8282496916791898, 21.87903774312018, -26.95493106303407, 65.07600132453162, 62.654466596154236 
169.27693273742855, 0.6232085823611995, 21.879050267463064, -26.451651521379034, 65.48435161108291, 62.6509235487496 
168.3674511020229, 0.42387442804247577, 21.879059051950673, -25.916973423236406, 65.88760337991843, 62.647467698875346 
167.45673370016038, 0.23030521915870447, 21.879064381893603, -25.349768033539725, 66.28540351684632, 62.644101058404885 
166.5447963259447, 0.04255761019009776, 21.879066538322064, -24.748894870919315, 66.67738151593194, 62.64082559487963 
165.63165693029123, -0.13931312200425325, 21.87906579755052, -24.113208437955073, 67.06314888271619, 62.63764322970741 
164.71733558803638, -0.3152531198039027, 21.879062430750725, -23.441566275924455, 67.44229860837319, 62.634555836396224 
163.8018544619702, -0.4852099862976498, 21.879056703533713, -22.732838489381233, 67.81440473776526, 62.631565238825004 
162.8852377637541, -0.6491328265067006, 21.879048875541113, -21.985918883706262, 68.17902205790386, 62.628673209554464 
161.96751171169367, -0.8069722882587497, 21.87903920004665, -21.199737850295072, 68.53568593703713, 62.62588146817916 
161.04870448534965, -0.9586806026101666, 21.879027923568, -20.373277117463143, 68.88391234834485, 62.62319167972356 
160.1288461769777, -1.1042116237128048, 21.87901528548976, -19.505586458441897, 69.22319811587298, 62.620605453083826 
159.20796873980117, -1.2435208680219072, 21.879001517697944, -18.595802408870895, 69.55302142366872, 62.618124339517465 
158.28610593313044, -1.3765655527413543, 21.878986844226517, -17.643168992853802, 69.87284263180979, 62.61574983118263 
157.36329326435572, -1.503304633403174, 21.878971480916338, -16.647060387046213, 70.18210544482433, 62.61348335972915 
156.43956792785073, -1.6236988404789017, 21.878955635087102, -15.607005364988192, 70.48023847846986, 62.61132629494293 
155.51496874083705, -1.7377107149218842, 21.87893950522264, -14.522713258435699, 70.76665726952962, 62.609279943445564 
154.58953607627146, -1.8453046425409658, 21.87892328067, -13.394101049503705, 71.04076676970408, 62.60734554745101 
153.66331179282946, -1.9464468871082976, 21.878907141352677, -12.22132106945625, 71.30196435833005, 62.60552428358061 
152.7363391620714, -2.041105622106446, 21.87889125749845, -11.00478863160171, 71.54964339909527, 62.60381726173832 
151.80866279288838, -2.1292509610227786, 21.87887578938213, -9.74520877418012, 71.78319735277164, 62.60222552404763 
150.88032855333705, -2.210854986102478, 21.87886088708355, -8.443601144351685, 72.00202444107707, 62.60075004385138 
149.95138348998407, -2.2858917754752257, 21.87884669026117, -7.101321929103486, 72.20553283614966, 62.59939172477578 
149.0218757448913, -2.35433742857465, 21.878833327941567, -5.720081647999882, 72.3931463261631, 62.598151399860406 
148.09185447038337, -2.416170089774111, 21.878820918325022, -4.301957582359296, 72.56431038110894, 62.59702983075471 
147.16136974174967, -2.4713699701671836, 21.87880956860765, -2.849399641497386, 72.71849851493188, 62.596027706982206 
146.23047246804177, -2.5199193674264126, 21.878799374820105, -1.3652285726505238, 72.8552188126751, 62.595145645273874 
145.2992143011358, -2.561802683679304, 21.87879042168311, 0.1473743840834318, 72.97402046608332, 62.59438418897084 
144.36764754323812, -2.5970064413464167, 21.87878278248023, 1.684887009216691, 73.07450014046837, 62.593743807498015 
143.43582505301896, -2.6255192968923073, 21.878776518947664, 3.2434750307179248, 73.15630798184732, 62.59322489590867 
142.5038001505657, -2.6473320524465427, 21.8787716811816, 4.819030274907579, 73.21915306846991, 62.5928277745009 
141.57162652135278, -2.6624376652583495, 21.878768307562922, 6.407217379291739, 73.26280811642329, 62.59255268850664 
140.63935811943014, -2.6708312549552615, 21.878766424699638, 8.003527929372504, 73.28711326582143, 62.592399807853276 
139.70704907003554, -2.672510108582886, 21.87876604738693, 9.603340442694948, 73.29197880198106, 62.59236922699851 
138.77475357183866, -2.66747368340999, 21.87876717858494, 11.201984261913513, 73.27738670371353, 62.592460964838494 
137.8425257990274, -2.6557236074899033, 21.878769809414354, 12.79480516959905, 73.24339095617205, 62.5926749646894 
136.91041980344704, -2.637263677976648, 21.87877391916967, 14.377230425986621, 73.1901166155105, 62.59301109434255 
135.9784894170021, -2.6120998572009464, 21.878779475350367, 15.944830968364393, 73.11775766335252, 62.59346914619319 
135.04678815453082, -2.5802402665186075, 21.87878643370957, 17.49337869344807, 73.0265737370583, 62.5940488374419 
134.115369117359, -2.5416951779505528, 21.878794738320618, 19.018897053224304, 72.9168858636342, 62.594749810369535 
133.18428489773657, -2.4964770036409054, 21.878804321660944, 20.51770359970558, 72.78907135816203, 62.5955716326846 
132.25358748435676, -2.444600283166025, 21.87881510471355, 21.986443576495887, 72.64355807007036, 62.5965137979427 
131.32332816915212, -2.3860816687342385, 21.87882699708576, 23.42211413420418, 72.48081817172306, 62.59757572603751 
130.39355745555602, -2.3209399083222646, 21.878839897145077, 24.82207920426299, 72.301361683987, 62.59875676376279 
129.46432496841058, -2.2491958268005883, 21.878853692172108, 26.184075469906404, 72.10572992386452, 62.600056185444345 
128.53567936569596, -2.1708723051058403, 21.878868258530154, 27.50621020144296, 71.89448904177972, 62.60147319364154 
127.60766825224525, -2.085994257524052, 21.87888346185137, 28.786951963243702, 71.66822379289296, 62.603006919916744 
126.6803380956027, -1.9945886071537695, 21.878899157239303, 30.02511534949829, 71.42753166017945, 62.60465642567255 
125.75373414417152, -1.8966842596231432, 21.878915189487337, 31.219840970354397, 71.17301741909176, 62.60642070305481 
124.82790034778743, -1.7923120751397101, 21.878931393312985, 32.37057190102373, 70.905288206276, 62.608298675920764 
123.90287928084518, -1.6815048389558036, 21.87894759360749, 33.477027738779704, 70.62494912945817, 62.61028920087098 
122.97871206809113, -1.5642972303365608, 21.87896360570066, 34.539177302707834, 70.33259943325531, 62.61239106834346 
122.05543831318693, -1.44072579012072, 21.878979235640305, 35.557210874293766, 70.02882921687002, 62.61460300376861 
121.13309603013481, -1.3108288869679108, 21.878994280486182, 36.531512727335176, 69.71421668460931, 62.61692366878362 
120.21172157764508, -1.1746466823882902, 21.87900852861782, 37.46263454461727, 69.38932589884926, 62.61935166250462 
119.29134959651303, -1.032221094653221, 21.879021760055988, 38.351270174881954, 69.05470499716502, 62.62188552285479 
118.37201295006177, -0.8835957616870981, 21.879033746797276, 39.19823205272853, 68.71088483044278, 62.62452372794688 
117.45374266769426, -0.7288160030421089, 21.879044253161435, 40.00442948969727, 68.35837797640808, 62.627264697518356 
116.53656789158684, -0.5679287810587492, 21.879053036150893, 40.770848948429375, 67.99767808264419, 62.630106794416996 
115.62051582654455, -0.40098266131548504, 21.87905984582214, 41.49853633350063, 67.62925949436581, 62.63304832613569 
114.70561169302651, -0.22802777247128292, 21.8790644256683, 42.1885812712695, 67.25357712452683, 62.63608754639351 
113.79187868333973, -0.04911576560461059, 21.879066513012578, 42.842103305183656, 66.87106652690969, 62.639222656761994 
112.87933792098731, 0.13570022684796454, 21.879065839411926, 43.46023990042015, 66.48214413636417, 62.642451808333924 
111.96800842314774, 0.3263656324513341, 21.87906213107038, 44.04413613035107, 66.08720764409243, 62.64577310343294 
111.05790706625133, 0.5228244803283606, 21.87905510926172, 44.59493590503751, 65.68663647962931, 62.64918459736131 
110.14904855461054, 0.7250194428136995, 21.87904449076061, 45.11377459683278, 65.28079237481101, 62.652684300184376 
109.24144539205162, 0.9328918771069996, 21.879029988281925, 45.60177291851373, 64.87001998846326, 62.65627017854884 
108.33510785648713, 1.1463818668296115, 21.879011310927464, 46.06003191369634, 64.45464757371867, 62.659940157532745 
107.43004397736009, 1.3654282633911932, 21.878988164639633, 46.48962892641614, 64.03498767275569, 62.66369212252554 
106.52625951588408, 1.5899687270751104, 21.878960252661344, 46.89161442568543, 63.61133782632938, 62.667523921134865 
105.62375794799615, 1.8199397677543456, 21.87892727600173, 47.26700957080806, 63.18398128773757, 62.671433365118745 
104.72254044993407, 2.055276785152295, 21.878888933906804, 47.61680441364772, 62.75318773284907, 62.6754182323401 
103.82260588634291, 2.2959141085663206, 21.878844924334715, 47.94195664447276, 62.319213959531325, 62.67947626874193 
102.92395080081256, 2.5417850359746748, 21.87879494443472, 48.243390798123635, 61.88230457127712, 62.6836051903402 
102.0265694087424, 2.7928218724510394, 21.878738691029515, 48.521997846859534, 61.4426926410676, 62.68780268523252 
101.13045359242587, 3.0489559678144125, 21.878675861100014, 48.7786351152021, 61.000600352547515, 62.692066415620125 
100.23559289824593, 3.3101177534452213, 21.87860615227216, 49.01412646033223, 60.55623961645231, 62.69639401984097 
99.34197453586832, 3.5762367782025923, 21.87852926330501, 49.229262669082075, 60.10981266093743, 62.70078311441099 
98.44958337931938, 3.8472417433808817, 21.878444894579527, 49.42480202929871, 59.66151259504082, 62.705231296072434 
97.55840196983273, 4.123060536647591, 21.878352748587346, 49.60147103936565, 59.211523944977, 62.70973614384544 
96.66841052034975, 4.403620264907957, 21.87825253041901, 49.7599652249898, 58.76002316333401, 62.714295221081926 
95.77958692155764, 4.6888472860457435, 21.87814394825089, 49.90095003704615, 58.307179111536875, 62.71890607751861 
94.89190674935011, 4.978667239492628, 21.878026713830263, 50.02506180837095, 57.853153516167026, 62.72356625132721 
94.00534327359634, 5.273005075582832, 21.877900542957857, 50.1329087509622, 57.39810139989604, 62.7282732711599 
93.11986746810537, 5.571785083652497, 21.87776515596729, 50.225071978138544, 56.942171487917044, 62.73302465818701 
92.23544802167528, 5.8749309188472685, 21.877620278200627, 50.30210653887394, 56.485506590841915, 62.737817928125956 
91.35205135011807, 6.1823656276045496, 21.877465640479713, 50.36454245381691, 56.02824396508923, 62.742650593257906 
90.46964160915513, 6.494011671780151, 21.877300979572283, 50.41288574446314, 55.57051565181796, 62.74752016443135 
89.58818070807976, 6.809790951392588, 21.877126038652676, 50.447619448619974, 55.11244879547396, 62.752424153049546 
88.70762832408856, 7.129624825960739, 21.87694056775611, 50.469204616720155, 54.65416594301185, 62.75736007304038 
87.82794191718509, 7.453434134414136, 21.876744324226305, 50.47808128473914, 54.19578532483909, 62.76232544280627 
86.94907674556562, 7.781139213557526, 21.876537073155596, 50.47466942048042, 53.737421118504066, 62.76731778715258 
86.07098588139924, 8.11265991507438, 21.876318587817117, 50.459369840837574, 53.27918369611749, 62.77233463919201 
85.19362022692073, 8.44791562105642, 21.876088650088374, 50.43256509834761, 52.82117985646068, 62.77737354222387 
84.31692853075852, 8.786825258048866, 21.875847050865822, 50.39462033593377, 52.363513042693185, 62.782432051585644 
83.44085740442588, 9.12930730960337, 21.875593590469652, 50.34588410921881, 51.90628354653076, 62.78750773647562 
82.56535133890881, 9.475279827332871, 21.87532807903847, 50.286689176183636, 51.449588699721396, 62.79259818174474 
81.69035272128895, 9.824660440464873, 21.8750503369133, 50.217353254266506, 50.99352305360288, 62.797700989655695 
80.81580185134696, 10.177366363891302, 21.87476019501029, 50.13817974525564, 50.538178547483575, 62.80281378160815 
79.94163695809644, 10.533314404715574, 21.87445749518174, 50.049458428531885, 50.083644666544004, 62.807934199828026 
79.06779421620593, 10.89242096729859, 21.874142090564977, 49.95146612337848, 49.63000858991675, 62.813059909019735 
78.1942077622711, 11.254602056807824, 21.873813845918555, 49.84446732119658, 49.17735532956172, 62.81818859797954 
77.32080971090828, 11.619773281274593, 21.87347263794533, 49.72871478855715, 48.7257678605157, 62.82331798116897 
76.44753017064417, 11.987849852166647, 21.873118355602017, 49.60445014208415, 48.27532724305806, 62.828445800246826 
75.57429725958607, 12.358746583484237, 21.87275090039485, 49.4719043962086, 47.82611273729998, 62.83356982555813 
74.7010371208622, 12.732377889389479, 21.872370186660728, 49.33129848485836, 47.378201910671606, 62.838687857579586 
73.82767393782946, 13.10865778037997, 21.871976141833862, 49.18284375816064, 46.93167073874909, 62.8437977283194 
72.95412994905371, 13.487499858018797, 21.87156870669711, 49.02674245523396, 46.48659369983582, 62.8488973026711 
72.08032546307412, 13.868817308234549, 21.87114783561799, 48.86318815413683, 46.043043863682136, 62.85398447971989 
71.2061788729721, 14.25252289320562, 21.870713496768843, 48.69236620002341, 45.60109297470367, 62.85905719400082 
70.33160667077213, 14.638528941844811, 21.870265672330987, 48.51445411253363, 45.16081153003235, 62.86411341670732 
