# MEX_intpoint_lon [deg], MEX_intpoint_lat [deg], MEX_intpoint_angle [deg], TGO_intpoint_lon [deg], TGO_intpoint_lat [deg], TGO_intpoint_angle [deg] 
-138.9959877213598, 19.515217643109832, 21.554494041269734, -27.63434613579287, 43.5497115825511, 62.84508558388464 
-139.893863787257, 19.12457781075963, 21.555069676264637, -27.9446994484642, 43.95044456294496, 62.84049622057999 
-140.7901164625496, 18.735007791518292, 21.55563398936879, -28.250529561323905, 44.353824195386835, 62.83587529835296 
-141.68484494365495, 18.346600484615575, 21.55618682233039, -28.55174319896586, 44.75980097566566, 62.83122426609082 
-142.57814692759538, 17.95944813512944, 21.556728030613815, -28.84824321163033, 45.16832502295711, 62.82654461182581 
-143.47011858725602, 17.573642355100542, 21.55725748341498, -29.139928345411338, 45.57934605858817, 62.82183786222301 
-144.36085454785032, 17.189274143739794, 21.557775063659953, -29.426692999180133, 45.9928133829183, 62.8171055820215 
-145.2504478644518, 16.8064339066923, 21.558280667987198, -29.708426967301822, 46.40867585022263, 62.81234937342837 
-146.13899000046487, 16.425211474322303, 21.55877420671323, -29.985015167151126, 46.82688184145325, 62.807570875466745 
-147.02657080691367, 16.045696118986516, 21.559255603782006, -30.256337350355963, 47.24737923474331, 62.802771763277285 
-147.91327850243982, 15.667976571264589, 21.55972479669799, -30.522267796614255, 47.6701153735073, 62.79795374737407 
-148.7991996539082, 15.292141035117762, 21.560181736443116, -30.78267498883939, 48.095037031977654, 62.79311857285497 
-149.68441915752848, 14.918277201948026, 21.56062638737773, -31.037421268292206, 48.522090378003575, 62.78826801856708 
-150.56902022041092, 14.546472263531882, 21.561058727125697, -31.2863624682525, 48.951220932922915, 62.7834038962279 
-151.45308434248054, 14.17681292380458, 21.561478746443893, -31.529347524669014, 49.382373528300164, 62.77852804950244 
-152.33669129868485, 13.80938540947157, 21.561886449076184, -31.766218062104397, 49.815492259305685, 62.77364235303718 
-153.2199191214366, 13.44427547942623, 21.562281851592225, -31.99680795315864, 50.25052043449034, 62.76874871145143 
-154.10284408324208, 13.081568432953263, 21.562664983211246, -32.2209428494116, 50.68740052168734, 62.76384905828676 
-154.98554067947222, 12.721349116699535, 21.56303588561109, -32.4384396817705, 51.126074089748506, 62.75894535491539 
-155.8680816112424, 12.363701930394766, 21.56339461272276, -32.64910612794175, 51.566481745795095, 62.754039589408215 
-156.7505377683728, 12.008710831306178, 21.563741230510878, -32.85274004456692, 52.00856306763307, 62.74913377536334 
-157.63297821241008, 11.656459337412434, 21.56407581674014, -33.04912886136954, 52.452256530951, 62.74422995069624 
-158.51547015969592, 11.307030529283699, 21.564398460728317, -33.23804893445135, 52.89749943088133, 62.73933017639219 
-159.39807896447735, 10.960507050655867, 21.56470926308601, -33.41926485565432, 53.34422779746769, 62.734436535222216 
-160.28086810205787, 10.616971107688547, 21.565008335443586, -33.592528714665, 53.792376304536006, 62.72955113042339 
-161.16389915199676, 10.276504466898052, 21.565295800165575, -33.75757931028293, 54.241878171420176, 62.724676084344985 
-162.04723178136976, 9.939188451757625, 21.565571790053017, -33.91414130700195, 54.69266505693984, 62.71981353706102 
-162.93092372810946, 9.60510393795945, 21.565836448034105, -34.06192433276349, 55.14466694496954, 62.71496564495116 
-163.81503078445172, 9.274331347333954, 21.566089926843564, -34.20062201343393, 55.597812020875146, 62.71013457925019 
-164.69960678051814, 8.94695064042423, 21.566332388691126, -34.329910939233805, 56.0520265380219, 62.705322524568764 
-165.58470356807194, 8.623041307714542, 21.56656400491964, -34.449449558007245, 56.50723467348224, 62.700531677385065 
-166.47037100448895, 8.302682359514552, 21.56678495565327, -34.558876989864615, 56.96335837198446, 62.69576424451039 
-167.35665693699144, 7.985952314501978, 21.566995429436098, -34.65781175736582, 57.42031717705092, 62.69102244152884 
-168.24360718719734, 7.672929186929236, 21.56719562286184, -34.7458504250355, 57.87802804816931, 62.686308491213126 
-169.13126553604184, 7.363690472501205, 21.56738574019493, -34.822566141622865, 58.33640516272844, 62.68162462191812 
-170.01967370913425, 7.058313132933649, 21.567565992983713, -34.887507078142434, 58.79535970132346, 62.6769730659532 
-170.90887136261594, 6.75687357920421, 21.567736599666013, -34.94019475436701, 59.2547996148995, 62.672356057935495 
-171.79889606959065, 6.459447653510246, 21.56789778516781, -34.98012224610263, 59.71462937205125, 62.66777583312503 
-172.68978330720148, 6.166110609950189, 21.568049780495343, -35.00675226527148, 60.1747496846323, 62.663234625744145 
-173.58156644443363, 5.876937093947691, 21.56819282232146, -35.01951510458333, 60.63505720964803, 62.65873466728222 
-174.47427673072383, 5.592001120440768, 21.568327152566436, -35.017806438411775, 61.095444225209086, 62.65427818478775 
-175.3679432854622, 5.31137605086033, 21.568453017974022, -35.000984971443046, 61.55579827811142, 62.649867399149414 
-176.26259308847355, 5.035134568925942, 21.568570669683208, -34.96836992676913, 62.01600180037654, 62.64550452336791 
-177.15825097156878, 4.7633486552890725, 21.56868036279634, -34.919238365406514, 62.47593169183873, 62.641191760820384 
-178.05493961125796, 4.496089561057276, 21.56878235594396, -34.8528223297987, 62.935458865598896, 62.636931303519184 
-178.95267952271962, 4.233427780235647, 21.568876910847226, -34.76830580478265, 63.39444775288219, 62.632725330366945 
-179.85148905512062, 3.9754330211251054, 21.568964291878213, -34.664821490867496, 63.852755763536834, 62.628576005409414 
179.248615611617, 3.7221741767199408, 21.569044765618855, -34.54144738660425, 64.31023269809981, 62.624485476088815 
178.34762046850543, 3.4737192941503285, 21.56911860041902, -34.39720317947231, 64.76672010703433, 62.620455871498294 
177.44551367754138, 3.230135543218647, 21.56918606595431, -34.231046448251476, 65.22205059241914, 62.61648930064083 
176.54228557002003, 2.9914891840814133, 21.56924743278418, -34.04186868451296, 65.67604704705225, 62.612587850693224 
175.63792864301905, 2.7578455341321058, 21.569302971911018, -33.82849114692051, 66.12852182563026, 62.608753585278144 
174.73243755395785, 2.5292689341427725, 21.569352954340527, -33.589660569813695, 66.57927584239808, 62.6049885427452 
173.82580911314201, 2.3058227137258838, 21.569397650644355, -33.324044757443154, 67.02809758945284, 62.60129473446386 
172.91804227420266, 2.0875691561804897, 21.569437330525204, -33.03022810771518, 67.47476206975932, 62.59767414312968 
172.0091381223454, 1.8745694627898875, 21.569472262385194, -32.70670712493655, 67.91902963893061, 62.594128721085546 
171.09909986032665, 1.6668837166408659, 21.56950271289798, -32.351886000479745, 68.36064474999476, 62.590660388660524 
170.18793279207844, 1.4645708460370623, 21.569528946585145, -31.964072364264695, 68.79933459576951, 62.58727103252767 
169.2756443039081, 1.2676885875819448, 21.569551225397554, -31.54147333932237, 69.23480764418055, 62.583962504083054 
168.36224384320502, 1.076293449009128, 21.569569808302063, -31.082192067406, 69.66675206298505, 62.58073661784754 
167.44774289459008, 0.8904406718401103, 21.569584950874223, -30.58422491665099, 70.09483403202418, 62.577595149893746 
166.5321549534527, 0.7101841939516644, 21.569596904897487, -30.04545963367603, 70.51869594347617, 62.57453983629941 
165.61549549682414, 0.5355766121369996, 21.569605917969465, -29.463674763233964, 70.93795449380163, 62.57157237162958 
164.69778195154464, 0.3666691447465562, 21.56961223311571, -28.836540729346126, 71.35219867537789, 62.568694407449044 
163.779033659689, 0.20351159449576486, 21.569616088411603, -28.161623053216932, 71.76098768146895, 62.56590755086703 
162.85927184122346, 0.046152311528297664, 21.569617716612694, -27.43638827492662, 72.16384874545484, 62.56321336311601 
161.9385195538746, -0.10536184317567314, 21.569617344794263, -26.658213246751743, 72.56027494446938, 62.56061335816576 
161.0168016502001, -0.2509855339560135, 21.569615194000217, -25.824398573297582, 72.9497230090948, 62.55810900137523 
160.09414473186098, -0.39067498610330986, 21.569611478902107, -24.932187082663113, 73.33161119485513, 62.55570170818345 
159.17057710110294, -0.5243880208731039, 21.569606407468502, -23.97878831592598, 73.70531728820231, 62.553392842840765 
158.24612870946524, -0.6520840897932075, 21.569600180645285, -22.96141010787166, 74.07017683964958, 62.55118371718277 
157.32083110374472, -0.7737243081741068, 21.569592992047195, -21.877298383886938, 74.4254817396269, 62.549075589447554 
156.3947173692531, -0.8892714877335827, 21.569585027661088, -20.723786294475687, 74.7704792781405, 62.54706966313872 
155.46782207041497, -0.998690168247665, 21.569576465561333, -19.498353721972233, 75.10437185657636, 62.54516708593462 
154.54018118876485, -1.1019466481416915, 21.569567475637577, -18.198697989817905, 75.42631754751196, 62.54336894864597 
153.61183205841104, -1.1990090139372411, 21.569558219335494, -16.822816244819027, 75.73543172387436, 62.54167628422277 
152.68281329904462, -1.2898471684728023, 21.569548849410495, -15.369099427589752, 76.03078999888818, 62.54009006681178 
151.75316474658123, -1.374432857818756, 21.569539509695176, -13.836436961269042, 76.3114327285683, 62.53861121086601 
150.82292738153322, -1.452739696810152, 21.56953033488038, -12.224330253081366, 76.57637132354563, 62.53724057030707 
149.89214325521917, -1.5247431931240223, 21.56952145031043, -10.533011823504397, 76.82459659050507, 62.53597893774177 
148.9608554139269, -1.5904207698315536, 21.56951297179279, -8.763565401299411, 77.05508926904523, 62.53482704373345 
148.02910782115444, -1.6497517863593665, 21.569505005422197, -6.918040753269648, 77.26683284181586, 62.53378555612984 
147.0969452780619, -1.7027175577983147, 21.569497647419812, -4.999555525722535, 77.45882857120209, 62.532855079447245 
146.16441334227545, -1.749301372502757, 21.569490983987336, -3.0123751969830153, 77.63011255562934, 62.53203615431283 
145.2315582451907, -1.7894885079278469, 21.569485091176386, -0.961961662588614, 77.7797744097529, 62.53132925696512 
144.29842680793055, -1.8232662446576475, 21.56948003477336, 1.1450187083759487, 77.90697696965181, 62.530734798813604 
143.3650663561178, -1.8506238785817266, 21.569475870199845, 3.3007352547250064, 78.01097622836863, 62.5302531260579 
142.43152463362878, -1.87155273118367, 21.569472642428785, 5.496286451478201, 78.09114054623313, 62.529884519367215 
141.49784971549784, -1.8860461579102303, 21.569470385916404, 7.721847737617834, 78.14696808396297, 62.529629193620046 
140.56408992014778, -1.89409955459578, 21.56946912455013, 9.966870217602356, 78.17810140065154, 62.52948729770507 
139.63029372112297, -1.8957103619224702, 21.5694688716125, 12.220321777265857, 78.1843382596914, 62.52945891438301 
138.69650965850536, -1.8908780679025177, 21.56946962976098, 14.470957682747201, 78.1656378943776, 62.52954406020991 
137.76278625019384, -1.8796042083750484, 21.569471391024088, 16.707604448363625, 78.12212228426243, 62.52974268552157 
136.82917190322945, -1.8618923655159592, 21.569474136813334, 18.919439238078603, 78.05407234947862, 62.53005467447991 
135.89571482534723, -1.837748164365373, 21.569477837951357, 21.096247580244274, 77.96191933835193, 62.53047984518023 
134.96246293693568, -1.8071792673832534, 21.569482454716066, 23.228644632926077, 77.84623201645574, 62.531017949819926 
134.0294637835823, -1.7701953670498003, 21.569487936900707, 25.308249199577887, 77.70770052253903, 62.53166867492833 
133.09676444938097, -1.7268081765330705, 21.56949422388982, 27.327804491762127, 77.54711791256919, 62.53243164165699 
132.16441147117416, -1.6770314184521808, 21.569501244750967, 29.281244524504896, 77.3653604594782, 62.53330640613065 
131.23245075389758, -1.6208808117700113, 21.569508918342112, 31.163709354670218, 77.16336772224113, 62.53429245985761 
130.30092748719125, -1.5583740568549393, 21.56951715343457, 32.971515677038155, 76.94212326561471, 62.53538923020007 
129.36988606343414, -1.4895308187562497, 21.569525848851207, 34.7020913662233, 76.70263672984267, 62.536596080902655 
128.43936999735402, -1.4143727087433293, 21.56953489361986, 36.35388341339852, 76.44592774703568, 62.53791231267934 
127.50942184735685, -1.3329232641631596, 21.56954416714175, 37.92624854115891, 76.17301200269272, 62.53933716385745 
126.58008313871272, -1.2452079266756337, 21.569553539374585, 39.41933486470475, 75.8848895650194, 62.54086981107823 
125.65139428872685, -1.1512540189303555, 21.569562871030175, 40.83396159945737, 75.58253546184568, 62.54250937005308 
124.72339453401655, -1.0510907197526305, 21.56957201378627, 42.17150225895955, 75.26689237885212, 62.544254896374014 
123.79612186000558, -0.9447490379102506, 21.569580810512406, 43.433775246978314, 74.93886528218383, 62.546105386378116 
122.86961293273774, -0.8322617845358734, 21.56958909550932, 44.622944360428, 74.59931772881781, 62.548059778064015 
121.94390303310297, -0.7136635442831433, 21.56959669476177, 45.7414305590753, 74.24906961312394, 62.550116952059916 
121.01902599355869, -0.5889906452972995, 21.569603426204335, 46.791835448898674, 73.88889610147599, 62.55227573264148 
120.09501413741944, -0.4582811280834619, 21.569609099999873, 47.77687625951176, 73.51952752260098, 62.55453488879862 
119.17189822077799, -0.32157471335801585, 21.569613518830238, 48.699331643291295, 73.1416500046266, 62.556893135349476 
118.24970737711051, -0.17891276896999303, 21.569616478198938, 49.561997346750026, 72.75590667663558, 62.55934913410044 
117.32846906460898, -0.03033827598104232, 21.569617766745264, 50.36765066372093, 72.36289928015867, 62.561901495050904 
116.40820901627347, 0.12410420600662535, 21.569617166569483, 51.11902253863029, 71.96319006256239, 62.56454877764075 
115.48895119278728, 0.28436857418402056, 21.569614453568764, 51.81877621550896, 71.55730384857229, 62.56728949203945 
114.57071773818788, 0.45040721844032683, 21.569609397783175, 52.469491399566316, 71.14573020763687, 62.57012210047497 
113.65352893833763, 0.6221710577483605, 21.56960176375162, 53.073652994210434, 70.72892565328385, 62.573045018600986 
112.73740318218834, 0.7996095769400294, 21.5695913108769, 53.633643583623105, 70.3073158261168, 62.57605661690069 
111.8223569258255, 0.9826708637819607, 21.569577793799635, 54.15173893994225, 69.88129762485812, 62.57915522212516 
110.90840465926843, 1.1713016462622658, 21.56956096278054, 54.630105938646714, 69.45124126016567, 62.58233911876514 
109.99555887599558, 1.3654473300003416, 21.56954056409044, 55.07080236224199, 69.0174922141611, 62.58560655055384 
109.0838300451554, 1.565052035693252, 21.569516340407613, 55.475778158955265, 68.58037309503278, 62.588955721999554 
108.17322658641633, 1.7700586365135438, 21.56948803122191, 55.846877799219506, 68.14018538102053, 62.59238479994554 
107.26375484740238, 1.9804087953753895, 21.56945537324508, 56.18584343841754, 67.69721105182164, 62.595891915155995 
106.3554190836545, 2.1960430019878032, 21.569418100826862, 56.494318650295945, 67.25171410821746, 62.5994751639259 
105.44822144105186, 2.4169006096160444, 21.569375946376134, 56.77385254254707, 66.80394198270311, 62.60313260971265 
104.54216194062194, 2.6429198714745614, 21.569328640786747, 57.025904105295986, 66.35412684528102, 62.6068622847884 
103.63723846566299, 2.8740379766774713, 21.56927591386737, 57.25184667564306, 65.90248680948334, 62.61066219190974 
102.73344675109895, 3.1101910856752326, 21.569217494774776, 57.45297242797269, 65.44922704423651, 62.614530306004525 
101.83078037498234, 3.351314365108812, 21.56915311245011, 57.63049682134169, 64.99454079745522, 62.61846457587241 
100.92923075205714, 3.5973420220158445, 21.569082496057405, 57.78556295270504, 64.53861033732811, 62.62246292589822 
100.02878712929221, 3.8482073373258405, 21.56900537542393, 57.91924577872149, 64.081607817188, 62.62652325777556 
99.12943658329198, 4.1038426985849235, 21.56892148148169, 58.032556180010474, 63.62369606968513, 62.63064345223897 
98.23116401949058, 4.364179631853338, 21.568830546709517, 58.12644485051732, 63.1650293357418, 62.634821370802754 
97.33395217303354, 4.629148832722389, 21.5687323055752, 58.201806001517326, 62.70575393347862, 62.63905485750474 
96.43778161125144, 4.898680196400256, 21.568626494977067, 58.25948087511377, 62.24600887199347, 62.64334174065217 
95.54263073762823, 5.172702846819643, 21.568512854684418, 58.30026106615801, 61.785926414549806, 62.647679834569395 
94.64847579716889, 5.451145164722996, 21.568391127776245, 58.32489165458856, 61.32563259540915, 62.652066941343705 
93.75529088306985, 5.733934814684452, 21.568261061077692, 58.3340741524555, 60.86524769422391, 62.6565008525688 
92.86304794459856, 6.0209987710304524, 21.568122405593602, 58.32846927152818, 60.40488667160216, 62.66097935108347 
91.97171679608847, 6.312263342624249, 21.567974916938695, 58.30869951851572, 59.94465956916343, 62.66550021270364 
91.08126512695851, 6.6076541964823745, 21.567818355763702, 58.27535162566906, 59.484671877130204, 62.670061207946176 
90.1916585126684, 6.907096380194064, 21.567652488177025, 58.22897882496662, 59.02502487224292, 62.674660103742504 
89.3028604265227, 7.210514343117546, 21.567477086161173, 58.17010297428651, 58.565815928546016, 62.67929466514035 
88.41483225224137, 7.517831956329821, 21.56729192798366, 58.099216543989264, 58.107138803371704, 62.683962656992 
87.5275332972153, 7.828972531309393, 21.567096798601664, 58.0167844722253, 57.64908390064384, 62.68866184562727 
86.64092080637161, 8.143858837333704, 21.566891490059962, 57.92324589707198, 57.19173851343608, 62.6933900005093 
85.75494997657455, 8.46241311757615, 21.566675801881583, 57.81901577332876, 56.73518704754694, 62.69814489587211 
84.86957397149462, 8.784557103889204, 21.566449541450815, 57.70448638147316, 56.279511227696744, 62.70292431233785 
83.98474393688035, 9.110212030263364, 21.566212524387787, 57.58002873592612, 55.82479028780793, 62.70772603851228 
83.10040901617383, 9.439298644953276, 21.565964574914418, 57.44599389940311, 55.37110114669881, 62.71254787255719 
82.21651636641458, 9.77173722126472, 21.56570552621102, 57.30271420974868, 54.91851857040265, 62.717387623737956 
81.33301117438154, 10.107447566998646, 21.56543522076329, 57.15050442527439, 54.46711532221375, 62.72224311394515 
80.44983667292904, 10.44634903254961, 21.565153510698998, 56.989662794248815, 54.01696230146549, 62.7271121791883 
79.56693415747635, 10.78836051765883, 21.564860258114145, 56.820472053826656, 53.56812867195386, 62.73199267106124 
78.68424300261806, 11.133400476823017, 21.56455533538799, 56.64320036335773, 53.12068198083999, 62.73688245817692 
77.8017006788261, 11.481386923362713, 21.564238625486617, 56.458102176683134, 52.674688268790206, 62.74177942757077 
76.9192427692219, 11.832237432154763, 21.56391002225464, 56.26541905771143, 52.23021217204551, 62.74668148607167 
76.03680298640238, 12.185869141035889, 21.563569430694514, 56.06538044326817, 51.78731701705131, 62.75158656163862 
75.15431318930952, 12.542198750885348, 21.56321676723328, 55.858204356931886, 51.3460649082226, 62.756492604663045 
74.27170340014088, 12.901142524396342, 21.562851959976268, 55.644098077304825, 50.90651680936984, 62.76139758923456 
73.38890182130287, 13.262616283547516, 21.562474948947333, 55.423258763920195, 50.46873261926457, 62.766299514369756 
72.5058348524179, 13.626535405786901, 21.562085686315463, 55.19587404375653, 50.032771241783, 62.771196405203135 
71.62242710740131, 13.99281481894231, 21.56168413660737, 54.962122561114505, 49.598690651027106, 62.77608631413879 
70.73860143163188, 14.361368994873525, 21.56127027690564, 54.722174493411245, 49.16654795178942, 62.78096732196241 
69.8542789192475, 14.732111941882906, 21.560844097032412, 54.476192035260986, 48.73639943569565, 62.78583753891233 
