# MEX_intpoint_lon [deg], MEX_intpoint_lat [deg], MEX_intpoint_angle [deg], TGO_intpoint_lon [deg], TGO_intpoint_lat [deg], TGO_intpoint_angle [deg] 
-138.9125883461623, 19.494951425400586, 21.4984263835524, -27.67488254265057, 44.219862035235685, 62.83091069369101 
-139.81227923749833, 19.107365438736686, 21.498995438631972, -27.996782700198008, 44.617712890285084, 62.82635479056812 
-140.7103480901684, 18.7208326500273, 21.499553375830303, -28.31435359336211, 45.01823510417263, 62.82176855726682 
-141.60689283279976, 18.33544564405735, 21.500100038589938, -28.627506017840275, 45.42138101992135, 62.81715343089893 
-142.50200993250448, 17.95129635372245, 21.500635283822174, -28.936147018928207, 45.8271026474644, 62.81251088623644 
-143.39579436907982, 17.568476080398334, 21.501158981922348, -29.240179665106584, 46.23535164504713, 62.80784243520532 
-144.28833961045416, 17.187075513437424, 21.501671016768984, -29.539502808215577, 46.64607929889964, 62.80314962633401 
-145.1797375892402, 16.80718474875494, 21.502171285706506, -29.83401082925849, 47.05923650107323, 62.79843404415679 
-146.07007868026895, 16.428893306468847, 21.502659699512012, -30.123593368799195, 47.474773725325846, 62.79369730857234 
-146.9594516789856, 16.052290147560424, 21.503136182345774, -30.40813504083401, 47.89264100093049, 62.78894107415804 
-147.84794378059982, 15.677463689523712, 21.50360067168595, -30.68751512892837, 48.31278788426984, 62.784167029439914 
-148.7356405598898, 15.304501820974302, 21.5040531182473, -30.961607263309485, 48.73516342806768, 62.779376896118954 
-149.62262595156977, 14.933491915189546, 21.50449348588427, -31.230279077499674, 49.159716148094226, 62.77457242825417 
-150.50898223113916, 14.564520842553735, 21.504921751478527, -31.493391842958328, 49.58639398716773, 62.769755411402826 
-151.3947899961383, 14.197674981883813, 21.505337904811068, -31.750800080073855, 50.01514427625787, 62.76492766171855 
-152.28012814774684, 13.8330402306121, 21.50574194841921, -32.002351143709916, 50.445913692478996, 62.760091025007725 
-153.16507387266526, 13.470702013804626, 21.506133897438605, -32.247884781360284, 50.87864821374071, 62.7552473757449 
-154.0497026252311, 13.110745291994494, 21.506513779430527, -32.487232661804434, 51.313293069802334, 62.750398616047995 
-154.93408810972605, 12.753254567811606, 21.506881634194656, -32.72021787197939, 51.74979268945262, 62.74554667461388 
-155.81830226284043, 12.398313891391028, 21.507237513567713, -32.94665437959102, 52.18809064351066, 62.740693505615255 
-156.7024152362657, 12.046006864544143, 21.5075814812081, -33.16634645877965, 52.628129583313616, 62.73584108755952 
-157.5864953793954, 11.696416643677555, 21.507913612366984, -33.379088075928266, 53.06985117432541, 62.73099142211092 
-158.47060922211978, 11.349625941446677, 21.50823399364602, -33.58466223245514, 53.513196024464214, 62.72614653287608 
-159.35482145770732, 11.005717027131952, 21.50854272274215, -33.782840261166015, 53.95810360670761, 62.72130846415483 
-160.23919492577252, 10.664771725727315, 21.508839908179723, -33.973381072451616, 54.40451217549032, 62.7164792796569 
-161.12379059533475, 10.326871415731965, 21.50912566903044, -34.15603034630191, 54.85235867636143, 62.71166106118542 
-162.00866754798128, 9.99209702563802, 21.509400134621334, -34.330519665770474, 55.30157864831476, 62.70685590728864 
-162.8938829611514, 9.66052902910831, 21.5096634442313, -34.496565587154244, 55.752106118146465, 62.70206593188088 
-163.77949209156606, 9.332247438840069, 21.50991574677663, -34.65386864176012, 56.20387348612951, 62.697293262833966 
-164.66554825883168, 9.007331799112311, 21.51015720048571, -34.802112263703265, 56.65681140222101, 62.69254004054025 
-165.5521028292546, 8.685861177016, 21.510387972563706, -34.94096163772608, 57.110848631939064, 62.68780841644891 
-166.43920519990482, 8.367914152368595, 21.51060823884731, -35.07006246053772, 57.56591191095629, 62.68310055157621 
-167.32690278297625, 8.053568806315853, 21.510818183450272, -35.18903960865373, 58.02192578735849, 62.678418614991784 
-168.21524099049282, 7.742902708626419, 21.511017998400057, -35.297495705162255, 58.47881245040771, 62.67376478228184 
-169.10426321941654, 7.435992903686356, 21.511207883266103, -35.395009577260815, 58.936491544527094, 62.66914123399097 
-169.9940108372173, 7.132915895203308, 21.5113880447803, -35.48113459579692, 59.39487996709133, 62.66455015404403 
-170.8845231679683, 6.833747629631987, 21.511558696449967, -35.555396887411874, 59.85389164845601, 62.659993728149516 
-171.77583747903628, 6.538563478335414, 21.511720058164126, -35.61729340923694, 60.31343731249564, 62.655474142186236 
-172.6679889684377, 6.24743821849843, 21.51187235579325, -35.66628987543312, 60.77342421573549, 62.65099358057436 
-173.56101075293782, 5.960446012812668, 21.512015820783372, -35.701818524214694, 61.23375586296205, 62.646554224633206 
-174.45493385697108, 5.677660387955031, 21.512150689744804, -35.7232757133688, 61.69433169697152, 62.64215825092655 
-175.3497872024649, 5.399154211883909, 21.51227720403614, -35.73001933170484, 62.155046759871134, 62.63780782959806 
-176.24559759965229, 5.124999669980708, 21.51239560934408, -35.72136601336843, 62.61579132307532, 62.6335051226977 
-177.1423897389593, 4.8552682400666525, 21.512506155259587, -35.69658814157797, 63.07645048284162, 62.629252282501376 
-178.0401861840578, 4.590030666327955, 21.51260909485096, -35.654910628142815, 63.53690371786461, 62.62505144982546 
-178.939007366173, 4.329356932185259, 21.512704684234418, -35.595507455168175, 63.99702440508989, 62.620904752337815 
-179.83887157973854, 4.073316232146406, 21.512793182142655, -35.51749796573749, 64.45667928952417, 62.61681430286725 
179.26020502050878, 3.821976942684425, 21.51287484949205, -35.41994289119851, 64.91572790339943, 62.61278219771329 
178.35820842090052, 3.5754065921857316, 21.51294994894899, -35.301840104114376, 65.37402192960215, 62.60881051495768 
177.4551267485829, 3.3336718300167374, 21.51301874449603, -35.16212008815868, 65.83140450380357, 62.604901312780214 
176.55095026954353, 3.0968383947597995, 21.51308150099822, -34.999641119464485, 66.28770944922876, 62.60105662777977 
175.64567138482835, 2.8649710816728637, 21.513138483770422, -34.813184158475444, 66.74276043748728, 62.59727847330323 
174.739284624858, 2.6381337094298365, 21.51318995814604, -34.601447457550435, 67.19637006836976, 62.5935688377837 
173.83178664175568, 2.4163890862018773, 21.513236189047717, -34.36304089789432, 67.64833886100446, 62.58992968309009 
172.92317619960096, 2.1997989751426803, 21.513277440560657, -34.09648008037564, 68.09845414829441, 62.58636294288965 
172.01345416252664, 1.988424059343566, 21.51331397550903, -33.80018020912826, 68.54648886614493, 62.5828705210258 
171.10262348057947, 1.782323906327142, 21.51334605503613, -33.47244982533776, 68.99220022868997, 62.57945428991245 
170.19068917326982, 1.581556932150641, 21.51337393818871, -33.11148447227739, 69.43532828059112, 62.5761160889474 
169.27765831073913, 1.3861803651928264, 21.51339788150612, -32.715360402660274, 69.87559431759054, 62.57285772294603 
168.36353999248007, 1.1962502097007093, 21.513418138614785, -32.282028477100766, 70.31269916695021, 62.56968096059737 
167.4483453235487, 1.011821209174203, 21.513434959828558, -31.80930844952141, 70.74632132033702, 62.56658753294465 
166.53208738821513, 0.8329468096694329, 21.51344859175538, -31.294883893503602, 71.17611491327858, 62.56357913189124 
165.61478122100453, 0.6596791231027433, 21.51345927691097, -30.736298094815048, 71.60170754773665, 62.560657408735 
164.6964437750881, 0.492068890639368, 21.513467253339773, -30.13095132168974, 72.02269795788197, 62.557823972731626 
163.77709388799076, 0.3301654462520933, 21.51347275424397, -29.476099987834928, 72.43865352413569, 62.555080389689564 
162.8567522445901, 0.17401668053641098, 21.51347600762075, -28.76885834520583, 72.84910764735892, 62.55242818059747 
161.93544133738908, 0.023669004869396073, 21.513477235908564, -28.006203485187775, 73.25355700418855, 62.54986882028668 
161.01318542405397, -0.12083268399954306, 21.513476655642663, -27.18498458749188, 73.65145871646266, 62.547403736129525 
160.09001048221762, -0.25944503883767145, 21.513474477120475, -26.301937533150607, 74.0422274830389, 62.545034306775605 
159.1659441615569, -0.39212629620936895, 21.513470904077153, -25.35370618551112, 74.42523274168686, 62.54276186092747 
158.24101573316344, -0.5188363100597455, 21.51346613337188, -24.336871830247215, 74.79979595269492, 62.54058767615702 
157.3152560362351, -0.6395365845138972, 21.513460354685186, -23.247992434640675, 75.1651881248064, 62.53851297776441 
156.3886974221263, -0.7541903058049721, 21.513453750227775, -22.083653511426917, 75.52062773823587, 62.53653893768055 
155.46137369580487, -0.8627623732457097, 21.51344649446124, -20.84053241614419, 75.86527925847633, 62.534666673414776 
154.53332005477154, -0.9652194291593013, 21.513438753830954, -19.515477819368307, 76.19825247728197, 62.53289724704906 
153.604573025511, -1.0615298876877104, 21.5134306865116, -18.10560581365214, 76.5186029613799, 62.53123166427984 
152.675170397549, -1.1516639623974065, 21.513422442165634, -16.60841356568829, 76.82533393140257, 62.529670873508756 
151.74515115520356, -1.235593692605348, 21.51341416171494, -15.021910528682854, 77.11739992763849, 62.52821576498354 
150.81455540712437, -1.313292968350662, 21.51340597712611, -13.344765917030996, 77.39371263773617, 62.52686716999002 
149.8834243137261, -1.3847375539408426, 21.513398011209457, -11.576469370996913, 77.65314925462658, 62.52562586009624 
148.95180001262807, -1.4499051100047164, 21.513390377432252, -9.71749951369711, 77.89456368924678, 62.524492546449935 
148.0197255422227, -1.5087752139881918, 21.51338317974618, -7.769492524743035, 78.11680087047309, 62.52346787912987 
147.0872447635021, -1.5613293790329816, 21.513376512429463, -5.735400143848623, 78.31871421428191, 62.52255244655211 
146.15440228028032, -1.6075510711827639, 21.513370459943722, -3.619624034977995, 78.49918613096487, 62.52174677493208 
145.22124335795496, -1.6474257248659767, 21.51336509680584, -1.4281116836941936, 78.65715116758824, 62.52105132780279 
144.28781384095956, -1.6809407566091266, 21.513360487474955, 0.8316014531111329, 78.7916210696807, 62.52046650559002 
143.3541600690622, -1.7080855769397285, 21.51335668625473, 3.150417419553506, 78.90171072282611, 62.51999264524523 
142.42032879267282, -1.7288516004431576, 21.513353737211084, 5.517779088368732, 78.98666364643194, 62.519630019936294 
141.48636708732423, -1.7432322539431793, 21.513351674105444, 7.921855679515273, 79.04587551158477, 62.51937883879646 
140.5523222674972, -1.7512229827813863, 21.51335052034358, 10.34980711679366, 79.07891409392215, 62.519239246732546 
139.61824179996208, -1.7528212551766538, 21.513350288940217, 12.788115366177763, 79.0855341874999, 62.51921132429148 
138.6841732168113, -1.7480265646513504, 21.51335098249927, 15.222962938011637, 79.06568630632512, 62.51929508758627 
137.75016402835953, -1.7368404305169465, 21.513352593209948, 17.640632766761506, 79.01951846168937, 62.51949048828143 
136.8162616360881, -1.7192663964175323, 21.513355102858547, 20.027900884756352, 78.94737086747571, 62.51979741363714 
135.88251324581, -1.695310026935744, 21.513358482856074, 22.372394255483147, 78.84976401140123, 62.52021568661304 
134.9489657812314, -1.6649789022712682, 21.51336269428148, 24.66289063080597, 78.72738105195255, 62.52074506603085 
134.01566579808355, -1.6282826110081268, 21.51336768794064, 26.88954443465749, 78.58104588718268, 62.5213852467959 
133.0826593989957, -1.5852327409925677, 21.51337340444092, 29.04403109183081, 78.41169845027576, 62.5221358601773 
132.14999214927772, -1.5358428683490286, 21.513379774281123, 31.11961046737874, 78.22036881067399, 62.52299647414609 
131.21770899377566, -1.4801285446672223, 21.51338671795694, 33.11111696642722, 78.00815152307582, 62.523966593771426 
130.28585417495958, -1.4181072823986496, 21.513394146081474, 35.014888639136025, 77.77618141542108, 62.52504566167382 
129.35447115239694, -1.349798538506043, 21.513401959520962, 36.82865013065153, 77.52561169480528, 62.5262330585351 
128.42360252375966, -1.275223696414287, 21.51341004954526, 38.55136473010591, 77.2575949271585, 62.527528103664366 
127.49328994750458, -1.1944060463159658, 21.513418297993127, 40.18306959290421, 76.97326715110017, 62.5289300556192 
126.56357406736211, -1.1073707638892518, 21.513426577451856, 41.724706021115274, 76.67373514271463, 62.53043811288154 
125.63449443875791, -1.0141448874900958, 21.513434751451232, 43.17795403565961, 76.36006666630675, 62.53205141458684 
124.7060894572855, -0.9147572938845964, 21.51344267467139, 44.54507779343878, 76.03328342589458, 62.53376904130618 
123.77839628933924, -0.8092386725910466, 21.513450193164367, 45.82878598171049, 75.69435636566806, 62.53559001587998 
122.85145080500696, -0.6976214989045764, 21.513457144589143, 47.032109316127915, 75.34420294385144, 62.53751330430228 
121.92528751331403, -0.5799400056803217, 21.513463358459614, 48.158295728056316, 74.98368601158774, 62.53953781665467 
120.99993949989948, -0.456230153953677, 21.51346865640549, 49.2107227303261, 74.61361395588966, 62.54166240808833 
120.07543836719645, -0.3265296024787326, 21.513472852445478, 50.19282573788323, 74.23474180455366, 62.54388587985339 
119.15181417717935, -0.19087767626785523, 21.513475753272612, 51.10804071408606, 73.84777303456174, 62.54620698037383 
118.22909539672935, -0.049315334217274534, 21.513477158551176, 51.959759337458586, 73.45336186927942, 62.5486244063671 
117.30730884566132, 0.09811486409527972, 21.513476861224994, 52.751294868803896, 73.05211589077464, 62.55113680400666 
116.38647964744507, 0.2513687923535754, 21.513474647836517, 53.4858569883351, 72.64459883021304, 62.553742770125886 
115.46663118264405, 0.41040079209864855, 21.51347029885645, 54.16653402354003, 72.23133343084677, 62.55644085346265 
114.54778504508528, 0.5751637078890148, 21.51346358902331, 54.796281169357954, 71.81280430454042, 62.55922955594196 
113.62996100076518, 0.7456089229368688, 21.513454287692635, 55.37791349128724, 71.38946072438125, 62.56210733399586 
112.71317694948719, 0.9216863951320111, 21.51344215919524, 55.91410268534962, 70.96171931321493, 62.565072599918594 
111.79744888921765, 1.1033446933658446, 21.51342696320415, 56.40737673821883, 70.52996660152515, 62.56812372325578 
110.88279088313878, 1.2905310340684748, 21.513408455109698, 56.860121782125525, 70.09456143853653, 62.571259032225335 
109.96921502936945, 1.4831913178728708, 21.513386386402228, 57.27458557094182, 69.65583724832436, 62.57447681516893 
109.05673143331639, 1.681270166321679, 21.513360505062046, 57.65288211641503, 69.21410412855955, 62.57777532203211 
108.1453481826121, 1.8847109585333532, 21.51333055595592, 57.99699711816057, 68.76965079373244, 62.5811527658711 
107.23507132458799, 2.0934558677464397, 21.513296281239754, 58.30879389955966, 68.32274636764113, 62.58460732438491 
106.32590484622624, 2.3074458976624035, 21.513257420766866, 58.59001962615333, 67.8736420318944, 62.588137141470575 
105.41785065652671, 2.5266209185099053, 21.513213712501294, 58.842311635490745, 67.42257253840235, 62.59174032879985 
104.51090857122148, 2.7509197027553363, 21.51316489293562, 59.06720374956268, 66.96975759449775, 62.595414967415635 
103.60507629976311, 2.9802799603872177, 21.513110697512758, 59.266132474627724, 66.51540312959716, 62.599159109346104 
102.70034943451022, 3.2146383737044344, 21.51305086105118, 59.44044301991282, 66.05970245228534, 62.60297077923466 
101.79672144202875, 3.4539306315409526, 21.512985118172963, 59.5913950876178, 65.60283730648082, 62.60684797598428 
100.8941836564251, 3.6980914628627577, 21.51291320373412, 59.72016840296127, 65.14497883497783, 62.61078867441377 
99.9927252746238, 3.9470546696751403, 21.512834853256695, 59.82786796557364, 64.6862884582135, 62.61479082692431 
99.09233335350076, 4.200753159181867, 21.512749803362, 59.915529013121954, 64.22691867561315, 62.618852365174995 
98.19299280878141, 4.459118975140469, 21.512657792204386, 59.98412169525078, 63.767013796351236, 62.6229712017642 
97.29468641561095, 4.722083328361084, 21.512558559905173, 60.03455546124403, 63.3067106058452, 62.627145231916664 
96.39739481070472, 4.989576626299095, 21.512451848985872, 60.067683168656956, 62.84613897379365, 62.63137233517267 
95.50109649598464, 5.261528501695278, 21.512337404800416, 60.08430492285878, 62.38542240908175, 62.63565037707884 
94.60576784360964, 5.537867840219705, 21.512214975965623, 60.08517165922809, 61.92467856641577, 62.63997721087809 
93.71138310230685, 5.818522807079123, 21.512084314789487, 60.07098848085683, 61.46401970911597, 62.64435067919708 
92.81791440491276, 6.103420872550297, 21.511945177696585, 60.0424177652141, 61.003553132094915, 62.64876861572932 
91.92533177703419, 6.39248883640476, 21.511797325650203, 60.000082053423114, 60.54338154867728, 62.65322884691246 
91.03360314674084, 6.685652851193571, 21.511640524570453, 59.94456673571961, 60.08360344457603, 62.6577291935974 
90.14269435520372, 6.982838444363153, 21.511474545747987, 59.87642254636294, 59.62431340202781, 62.662267472708315 
89.25256916819532, 7.2839705391765195, 21.511299166252652, 59.79616788082839, 59.16560239680623, 62.66684149889127 
88.36318928837188, 7.588973474416521, 21.511114169336665, 59.70429094756569, 58.707558070572745, 62.67144908614988 
87.4745143682593, 7.89777102285083, 21.51091934483159, 59.60125176600114, 58.2502649807903, 62.676088049466884 
86.58650202386919, 8.210286408440368, 21.51071448953885, 59.487484021820414, 57.793804830212274, 62.680756206409 
85.69910784887442, 8.52644232227622, 21.510499407613036, 59.36339678991078, 57.33825667776686, 62.68545137871481 
84.81228542927818, 8.846160937231536, 21.51027391093759, 59.22937613468754, 56.883697132483505, 62.690171393862954 
83.9259863585139, 9.1693639213181, 21.510037819492393, 59.08578659688539, 56.43020053195041, 62.6949140866198 
83.04016025291877, 9.495972449738874, 21.50979096171279, 58.932972575273105, 55.97783910665133, 62.699677300564794 
82.15475476752783, 9.825907215630359, 21.50953317483946, 58.771259611152615, 55.5266831314015, 62.70445888959266 
81.26971561214009, 10.159088439490533, 21.509264305258753, 58.600955582935384, 55.0768010649874, 62.70925671938992 
80.38498656761435, 10.49543587729007, 21.5089842088331, 58.42235181755273, 54.62825967901133, 62.71406866888561 
79.50050950235628, 10.834868827266694, 21.50869275122088, 58.235724124951055, 54.18112417684777, 62.71889263167423 
78.616224388965, 11.177306135403928, 21.508389808185516, 58.04133376145183, 53.73545830353416, 62.723726517409624 
77.7320693210121, 11.522666199597856, 21.50807526589322, 57.839428327313584, 53.291324447342184, 62.728568253168746 
76.84798052993263, 11.87086697251646, 21.50774902119908, 57.630242603424634, 52.84878373370728, 62.733415784784334 
75.9638924020127, 12.221825963158615, 21.507410981921108, 57.413999331672876, 52.40789611213113, 62.7382670781448 
75.07973749546524, 12.57546023712042, 21.50706106710179, 57.19090994318782, 51.96872043661676, 62.74312012046072 
74.19544655759151, 12.931686415578971, 21.506699207256883, 56.96117523832239, 51.531314540144585, 62.7479729214968 
73.31094854203188, 13.2904206730045, 21.506325344611053, 56.724986021941625, 51.09573530365144, 62.75282351476796 
72.42617062611697, 13.651578733613587, 21.505939433320034, 56.482523697306895, 50.66203871993464, 62.75766995869915 
71.54103822833609, 14.015075866577527, 21.505541439679078, 56.23396082158804, 50.230279952863896, 62.76251033774748 
70.65547502594767, 14.380826880001122, 21.505131342317206, 55.97946162579963, 49.80051339225123, 62.76734276348616 
69.76940297276256, 14.74874611368889, 21.504709132377265, 55.71918250173999, 49.37279270469742, 62.77216537564905 
68.88274231713953, 15.118747430716741, 21.50427481368127, 55.453272458311844, 48.9471708807064, 62.77697634313567 
