# MEX_intpoint_lon [deg], MEX_intpoint_lat [deg], MEX_intpoint_angle [deg], TGO_intpoint_lon [deg], TGO_intpoint_lat [deg], TGO_intpoint_angle [deg] 
-139.24698206995276, 19.57505601975649, 21.725499623966474, -27.483960969029205, 41.49330370649366, 62.889049589492096 
-140.13925995106777, 19.175208171397546, 21.72609534472709, -27.76175751377918, 41.90183969649022, 62.88438530351162 
-141.02991267821793, 18.7764810385084, 21.726679113262254, -28.034510391730457, 42.31293208062815, 62.87968569821541 
-141.91904326477092, 18.378968409091872, 21.727250766159113, -28.30211703820132, 42.72652564049371, 62.87495225012622 
-142.80675310840854, 17.982763411653995, 21.727810154485645, -28.564470798676435, 43.142564651387175, 62.8701864794437 
-143.69314196984092, 17.587958538586154, 21.728357143805724, -28.82146069902811, 43.56099285360184, 62.86538994951755 
-144.5783079525944, 17.1946456685354, 21.728891614176685, -29.07297120356665, 43.98175342142463, 62.86056426626805 
-145.46234748372785, 16.802916087727805, 21.729413460129443, -29.318881960157913, 44.40478892972696, 62.85571107755528 
-146.34535529534384, 16.412860510211964, 21.72992259063127, -29.559067531596515, 44.83004131800398, 62.850832072496424 
-147.22742440676998, 16.02456909699165, 21.730418929031238, -29.793397112368847, 45.257451851708744, 62.845928980731586 
-148.108646107298, 15.63813147401812, 21.73090241298859, -30.021734229884075, 45.68696108071588, 62.84100357163921 
-148.98910993937693, 15.253636749014838, 21.731372994383978, -30.243936429190843, 46.11850879473514, 62.836057653500575 
-149.8689036821661, 14.871173527108361, 21.73183063921388, -30.459854940134495, 46.552033975481336, 62.831093072614436 
-150.74811333536454, 14.49082992524086, 21.73227532746829, -30.669334325842478, 46.987474745390855, 62.82611171236223 
-151.6268231032409, 14.112693585341415, 21.732707052991852, -30.87221211135555, 47.42476831265776, 62.821115492224465 
-152.5051153787977, 13.736851686233788, 21.733125823328784, -31.068318391148672, 47.863850912344375, 62.81610636674874 
-153.38307072801206, 13.363390954260844, 21.733531659551584, -31.257475414207935, 48.30465774329992, 62.81108632447057 
-154.26076787410378, 12.992397672605735, 21.73392459607402, -31.43949714524996, 48.74712290060024, 62.806057386787 
-155.13828368178895, 12.623957689292364, 21.734304680448506, -31.614188800585804, 49.191179303196456, 62.801021606784836 
-156.0156931414864, 12.258156423848035, 21.734671973148235, -31.78134635704541, 49.63675861643592, 62.79598106802345 
-156.89306935345056, 11.895078872612984, 21.735026547334304, -31.940756032289766, 50.083791169089515, 62.79093788327365 
-157.77048351181352, 11.534809612682311, 21.735368488608238, -32.09219373474659, 50.5322058644906, 62.785894193213316 
-158.64800488852464, 11.177432804467507, 21.7356978947502, -32.23542448131448, 50.9819300853564, 62.780852165081065 
-159.52570081718488, 10.82303219286567, 21.736014875443242, -32.37020178088765, 51.432889591828946, 62.77581399128869 
-160.40363667677877, 10.471691107026135, 21.736319551984035, -32.49626698166329, 51.885008412232565, 62.77078188799406 
-161.28187587531417, 10.123492458705654, 21.736612056980324, -32.613348580105686, 52.338208726004794, 62.76575809363495 
-162.16047983338737, 9.778518739204321, 21.736892534035718, -32.72116148935807, 52.79241073821202, 62.760744867425785 
-163.039507967696, 9.43685201487665, 21.737161137422127, -32.81940626481786, 53.247532545012895, 62.75574448781806 
-163.91901767453024, 9.098573921213056, 21.737418031740212, -32.907768284526064, 53.703489989381076, 62.75075925092614 
-164.7990643132774, 8.763765655489335, 21.737663391568447, -32.98591688197096, 54.160196506341954, 62.74579146891942 
-165.67970118998275, 8.432507967983, 21.737897401101197, -33.05350442887529, 54.617562956918995, 62.7408434683829 
-166.5609795410132, 8.104881151757583, 21.738120253776245, -33.11016536552974, 55.0754974499199, 62.735917588647126 
-167.44294851687778, 7.78096503101766, 21.738332151892372, -33.15551517626166, 55.5339051506253, 62.73101618008934 
-168.32565516626343, 7.460838948039682, 21.738533306217324, -33.18914930769463, 55.99268807536806, 62.72614160240721 
-169.20914442035001, 7.144581748685634, 21.738723935586894, -33.210642027571886, 56.45174487091505, 62.72129622286707 
-170.09345907747374, 6.832271766509021, 21.738904266495492, -33.21954522209833, 56.91097057748036, 62.71648241452815 
-170.97863978821238, 6.5239868054647525, 21.73907453267883, -33.21538713001499, 57.370256374113204, 62.71170255444464 
-171.864725040971, 6.2198041212375, 21.739234974689122, -33.19767101197602, 57.82948930511352, 62.706959021846956 
-172.75175114815022, 5.9198004012050545, 21.739385839463587, -33.16587375427247, 58.288551986036005, 62.70225419630478 
-173.6397522329845, 5.624051743056314, 21.739527379886653, -33.119444406563886, 58.74732228774755, 62.69759045587308 
-174.5287602171393, 5.332633632086341, 21.739659854346502, -33.05780265406992, 59.205672996906465, 62.69297017522311 
-175.41880480916262, 5.0456209171934665, 21.73978352628642, -32.980337225674376, 59.66347145113719, 62.68839572376044 
-176.3099134938858, 4.763087785606818, 21.739898663751845, -32.88640424064671, 60.120579147080136, 62.68386946373207 
-177.20211152287462, 4.485107736375475, 21.74000553893322, -32.77532549823928, 60.576851319409506, 62.67939374832417 
-178.0954219060311, 4.211753552653508, 21.740104427705816, -32.646386716333076, 61.03213648883382, 62.67497091975287 
-178.9898654044508, 3.9430972728186977, 21.74019560916662, -32.49883572764572, 61.48627597702942, 62.67060330735009 
-179.8854605246399, 3.6792101604657184, 21.740279365169208, -32.331880644863986, 61.939103386412796, 62.666293225646235 
179.21777648580124, 3.420162673318016, 21.74035597985713, -32.14468800950767, 62.39044404264025, 62.66204297245193 
178.31983164092117, 3.1660244311058556, 21.740425739196375, -31.936380943478063, 62.84011439774286, 62.65785482694105 
177.4206932174808, 2.9168641824617167, 21.740488930507553, -31.706037327208108, 63.28792139187016, 62.65373104773706 
176.5203517542296, 2.6727497708871253, 21.740545841998394, -31.45268803424473, 63.7336617717455, 62.64967387100472 
175.6188000492906, 2.433748099848931, 21.74059676229731, -31.175315259104423, 64.17712136414136, 62.64568550854928 
174.71603315554782, 2.199925097065969, 21.74064197998834, -30.872850983505696, 64.61807430298897, 62.64176814592547 
173.8120483739367, 1.9713456780507586, 21.74068178314842, -30.54417563576973, 65.0562822091653, 62.63792394055862 
172.90684524453548, 1.7480737089739182, 21.74071645888731, -30.188117009464506, 65.49149332258189, 62.63415501987927 
172.0004255353629, 1.5301719689223228, 21.740746292890975, -29.803449520422543, 65.92344158696875, 62.63046347947444 
171.09279322878874, 1.3177021116252483, 21.740771568968913, -29.388893896247488, 66.35184568874317, 62.62685138125706 
170.1839545054694, 1.1107246267254556, 21.740792568606068, -28.943117409470243, 66.77640805262308, 62.62332075165589 
169.27391772572412, 0.9092988006754914, 21.74080957051986, -28.464734784701932, 67.19681379824227, 62.61987357982817 
168.36269340827548, 0.713482677341955, 21.74082285022301, -27.952309931454224, 67.6127296640073, 62.61651181589697 
167.450294206281, 0.5233330184030155, 21.740832679592682, -27.404358677632843, 68.02380290687034, 62.613237369215476 
166.53673488059115, 0.3389052636271445, 21.740839326446427, -26.819352703756415, 68.42966018964309, 62.610052106660014 
165.62203227017574, 0.16025349112285067, 21.740843054125673, -26.195724904167815, 68.8299064710187, 62.60695785095466 
164.70620525966828, -0.01256962234856959, 21.74084412108713, -25.53187642802573, 69.22412391766217, 62.603956379028375 
163.78927474398665, -0.17951284090368022, 21.740842780502742, -24.82618567840727, 69.61187086263566, 62.6010494204075 
162.87126358999583, -0.340526408815879, 21.740839279868716, -24.077019570612126, 69.99268084008052, 62.59823865564539 
161.9521965951897, -0.4955620894466024, 21.74083386062407, -23.282747368285552, 70.36606173249056, 62.59552571479098 
161.03210044337584, -0.6445732037316154, 21.740826757779296, -22.441757425069873, 70.73149507404136, 62.592912175898476 
160.11100365736036, -0.787514668124858, 21.740818199555555, -21.552477156104484, 71.08843556118852, 62.59039956357961 
159.18893654863697, -0.9243430319020671, 21.74080840703497, -20.613396542881915, 71.4363108299153, 62.58798934760075 
158.26593116409708, -1.0550165137266452, 21.740797593822265, -19.623095430937006, 71.77452156729089, 62.58568294152642 
157.34202122978795, -1.1794950373805542, 21.740785965718587, -18.580274806107823, 72.10244203294128, 62.5834817014109 
156.41724209175666, -1.2977402665640414, 21.74077372040746, -17.483792124832554, 72.41942107300878, 62.58138692453984 
155.49163065402908, -1.4097156386692578, 21.74076104715374, -16.33270062056713, 72.72478371437074, 62.579399848222884 
154.56522531378351, -1.5153863974342916, 21.74074812651558, -15.126292306523272, 73.01783342928776, 62.577521648639845 
153.63806589379112, -1.6147196243863555, 21.74073513007012, -13.864144141549174, 73.2978551590618, 62.57575343974105 
152.7101935722046, -1.7076842689850256, 21.740722220153007, -12.546166522111687, 73.56411917837339, 62.57409627220359 
151.78165080978857, -1.794251177379395, 21.74070954961225, -11.1726529158035, 73.81588586836665, 62.57255113244495 
150.85248127469612, -1.8743931196959722, 21.74069726157667, -9.744329075058973, 74.05241144498797, 62.571118941695154 
149.92272976490457, -1.9480848157777677, 21.740685489239233, -8.262399887480198, 74.27295465860465, 62.56980055512881 
148.99244212843607, -2.0153029592988028, 21.740674355655642, -6.7285915649539865, 74.47678444112171, 62.56859676105776 
148.06166518149612, -2.076026240182495, 21.740663973558345, -5.14518659049702, 74.66318842811548, 62.56750828018615 
147.13044662467362, -2.1302353652569566, 21.740654445186262, -3.5150486791523785, 74.83148222744096, 62.56653576492805 
146.19883495735394, -2.177913077084994, 21.740645862130517, -1.8416350187133819, 74.98101924518332, 62.56567979878918 
145.26687939050512, -2.2190441709118134, 21.7406383051962, -0.12899328348381017, 75.11120081889725, 62.5649408958134 
144.33462975800404, -2.253615509678834, 21.740631844280568, 1.618258609027729, 75.22148635220105, 62.56431950009426 
143.40213642667658, -2.28161603705768, 21.74062653826768, 3.3949712955301266, 75.31140310013689, 62.56381598535296 
142.46945020523148, -2.303036788464262, 21.740622434939652, 5.195521651161269, 75.38055522754438, 62.56343065458297 
141.53662225227268, -2.3178709000190088, 21.740619570904723, 7.0138885586502635, 75.42863175850658, 62.563163739761386 
140.6037039835795, -2.326113615425526, 21.740617971542083, 8.843744751268881, 75.45541305743298, 62.56301540162817 
139.6707469788469, -2.3277622907463495, 21.74061765096368, 10.678561554522496, 75.46077553264084, 62.56298572953291 
138.73780288808103, -2.3228163970609796, 21.74061861199296, 12.51172236243519, 75.44469432930646, 62.56307474134981 
137.80492333784687, -2.311277520997892, 21.740620846160635, 14.336639988459305, 75.40724387505988, 62.56328238346061 
136.87215983756514, -2.2931493631388764, 21.740624333717413, 16.146872715919883, 75.34859625023768, 62.56360853080559 
135.93956368605578, -2.2684377343007425, 21.740629043663755, 17.936233979105374, 75.2690174661057, 62.56405298700285 
135.00718587852379, -2.2371505497058157, 21.74063493379653, 19.698891119878205, 75.16886183807966, 62.564615484535274 
134.07507701418177, -2.199297821059449, 21.74064195077261, 21.429449520452337, 75.04856472803162, 62.565295685005296 
133.14328720469948, -2.154891646558984, 21.740650030189197, 23.123019505459016, 74.90863399339102, 62.566093179456864 
132.21186598366813, -2.1039461988650987, 21.740659096680922, 24.775264609064187, 74.74964051720393, 62.56700748876438 
131.28086221726142, -2.0464777110725128, 21.740669064033412, 26.382430988591082, 74.57220820215407, 62.56803806408799 
130.35032401627035, -1.982504460723154, 21.740679835313376, 27.9413588254586, 74.37700379527541, 62.56918428739443 
129.42029864968245, -1.9120467519104725, 21.74069130301482, 29.449477408317797, 74.16472687341937, 62.570445472043325 
128.49083245996886, -1.8351268955293656, 21.740703349221413, 30.90478619910755, 73.93610026847598, 62.57182086343748 
127.56197078023516, -1.751769187731244, 21.740715845784596, 32.30582453219641, 73.69186115221247, 62.57330963973665 
126.63375785338349, -1.6619998866489172, 21.740728654517326, 33.651632710168315, 73.43275293923007, 62.57491091263369 
125.70623675342478, -1.5658471874605893, 21.740741627403192, 34.94170717694917, 73.15951810777625, 62.57662372819266 
124.7794493090698, -1.4633411958666414, 21.74075460682049, 36.175952219578086, 72.87289198549956, 62.57844706774657 
123.85343602971913, -1.3545139000569382, 21.740767425781154, 37.35463032532377, 72.57359750286331, 62.580379848854804 
122.92823603396025, -1.2393991412500298, 21.740779908184113, 38.47831294777641, 72.26234088179521, 62.58242092631836 
122.0038869806711, -1.1180325828889763, 21.740791869082692, 39.54783305246103, 71.93980820122097, 62.584569093251524 
121.08042500281775, -0.9904516785814821, 21.74080311496589, 40.564240448025735, 71.60666276369261, 62.58682308220905 
120.15788464402213, -0.8566956388744641, 21.740813444052904, 41.52876058207149, 71.26354317723549, 62.58918156636691 
119.23629879796702, -0.7168053969556605, 21.740822646600797, 42.44275720162496, 70.9110620624592, 62.59164316075519 
118.31569865069154, -0.5708235733763007, 21.740830505224572, 43.3076990507882, 70.5498052955417, 62.59420642354188 
117.39611362582103, -0.41879443989067, 21.740836795229598, 44.1251306010254, 70.18033170163207, 62.59686985736534 
116.47757133276433, -0.2607638825091631, 21.74084128495562, 44.89664667849181, 69.8031731194159, 62.59963191071447 
115.56009751789905, -0.09677936386236591, 21.740843736132113, 45.623870761659944, 69.41883476513446, 62.602490979354016 
114.64371601875649, 0.07311011502628383, 21.74084390424439, 46.308436664455144, 69.02779583252597, 62.60544540779393 
113.72844872120609, 0.24885405346137196, 21.740841538910114, 46.95197328846652, 68.630510273429, 62.60849349080047 
112.81431551963009, 0.4304004901926807, 21.74083638426549, 47.55609211636936, 68.22740771177645, 62.61163347494725 
111.9013342800691, 0.6176960428319781, 21.740828179360896, 48.12237712210982, 67.8188944511652, 62.614863560204675 
110.98952080630892, 0.8106859474737691, 21.740816658565265, 48.65237678716228, 67.40535454296713, 62.618181901564995 
110.07888880887202, 1.0093140984256301, 21.74080155197869, 49.14759793266386, 66.98715088798255, 62.62158661070207 
109.16944987686635, 1.2135230879553658, 21.7407825858528, 49.609501101645975, 66.5646263499141, 62.625075757662536 
108.2612134526381, 1.4232542459639836, 21.740759483018223, 50.03949725180393, 66.1381048634833, 62.628647372587544 
107.35418680916595, 1.6384476794956424, 21.740731963318783, 50.43894554574614, 65.70789252387137, 62.63229944746217 
106.44837503012911, 1.8590423119978825, 21.740699744051543, 50.809152051380025, 65.274278647404, 62.63602993789066 
105.54378099257319, 2.084975922248125, 21.740662540412472, 51.15136918933433, 64.83753679608334, 62.6398367648955 
104.64040535209413, 2.316185182864857, 21.740620065946842, 51.466795786671284, 64.39792576077093, 62.643717816737826 
103.73824653045341, 2.5526056983249736, 21.740572033004014, 51.75657761640478, 63.955690499607414, 62.64767095075759 
102.83730070553463, 2.7941720424115686, 21.740518153195804, 52.0218083204502, 63.51106302968169, 62.651693995230694 
101.93756180354661, 3.040817795019512, 21.740458137857996, 52.26353062963394, 63.06426327108941, 62.655784751241434 
101.03902149337486, 3.2924755782495843, 21.740391698514276, 52.482737808391505, 62.615499843397316, 62.659940994567755 
100.14166918298086, 3.5490770917248415, 21.74031854734209, 52.68037526393159, 62.164970815201265, 62.66416047757748 
99.24549201774555, 3.8105531470664853, 21.740238397639658, 52.857342270107296, 61.712864407965824, 62.668440931133006 
98.35047488065268, 4.076833701469756, 21.740150964293758, 53.014493765189314, 61.25935965569859, 62.672780066502554 
97.45660039420522, 4.347847890323839, 21.740055964247407, 53.15264219035209, 60.8046270222638, 62.67717557727594 
96.56384892396866, 4.623524058822973, 21.739953116967094, 53.27255934212626, 60.34882897830658, 62.68162514128222 
95.67219858363383, 4.903789792519743, 21.739842144908653, 53.37497821749279, 59.892120539853, 62.686126422507805 
94.78162524149312, 5.188571946774389, 21.739722773981505, 53.46059483483313, 59.434649770693774, 62.69067707301256 
93.89210252822384, 5.477796675057862, 21.739594734010357, 53.53007001773172, 58.97655825065758, 62.695274734841675 
93.00360184587471, 5.771389456069205, 21.73945775919396, 53.584031131761535, 58.51798151184939, 62.699917041931535 
92.11609237795248, 6.069275119631303, 21.73931158856021, 53.62307376696742, 58.059049444873125, 62.7046016220078 
91.229541100508, 6.3713778713323315, 21.739155966417048, 53.647763360880916, 57.59988667698609, 62.70932609847292 
90.34391279412385, 6.6776213158829405, 21.738990642798544, 53.65863675862571, 57.14061292405043, 62.714088092281806 
89.45917005670796, 6.987928479162768, 21.738815373905634, 53.65620370806975, 56.68134331805473, 62.718885223803646 
88.57527331700162, 7.302221828932297, 21.738629922540827, 53.64094828910021, 56.22218871188552, 62.72371511466765 
87.69218084871285, 7.6204232941893775, 21.738434058536434, 53.61333027698843, 55.76325596293152, 62.728575389591036 
86.80984878519116, 7.942454283151934, 21.738227559175655, 53.57378644051206, 55.3046481970078, 62.73346367818758 
85.92823113456255, 8.26823569985175, 21.738010209606053, 53.52273177604337, 54.84646505399257, 62.7383776167548 
85.0472797952495, 8.597687959325889, 21.737781803244793, 53.46056067922499, 54.38880291647815, 62.743314850037805 
84.16694457180358, 8.930731001395518, 21.737542142175183, 53.387648056159776, 53.931755122649236, 62.748273032968655 
83.28717319098519, 9.267284303023745, 21.737291037533968, 53.304350376259606, 53.47541216451768, 62.753249832378934 
82.40791131802837, 9.607266889246391, 21.737028309888814, 53.211006669045986, 53.019861872563524, 62.75824292868454 
81.52910257303488, 9.950597342672, 21.736753789605572, 53.107939467285895, 52.565189587755775, 62.763250017540635 
80.65068854744722, 10.297193811548805, 21.736467317204813, 52.99545569889141, 52.11147832185641, 62.76826881146538 
79.77260882055538, 10.646974016399147, 21.736168743707054, 52.87384753002073, 51.65880890684378, 62.773297041431185 
78.89480097599908, 10.999855255222641, 21.73585793096644, 52.74339316179865, 51.20726013423019, 62.77833245842172 
78.01720061823185, 11.355754407272121, 21.735534751992134, 52.60435758303313, 50.75690888498939, 62.78337283495355 
77.13974138892154, 11.714587935407142, 21.7351990912573, 52.45699328124626, 50.30783025075704, 62.78841596656098 
76.26235498326561, 12.07627188703215, 21.734850844994988, 52.30154091426747, 49.86009764691563, 62.79345967324286 
75.38497116620923, 12.4407218936273, 21.734489921480765, 52.13822994455712, 49.41378291813005, 62.79850180087007 
74.50751778855819, 12.807853168881648, 21.73411624130147, 51.96727923834291, 48.968956436856175, 62.80354022255256 
73.62992080298713, 13.177580505439982, 21.73372973760993, 51.78889763156228, 48.52568719530489, 62.808572839964874 
72.75210427995032, 13.549818270275301, 21.73333035636517, 51.60328446451227, 48.08404289130765, 62.81359758462897 
71.87399042350923, 13.924480398700911, 21.7329180565578, 51.410630087016514, 47.644090008494764, 62.81861241915365 
70.99549958709893, 14.301480387036806, 21.732492810420332, 51.21111633582743, 47.20589389116685, 62.82361533842894 
70.1165502892624, 14.680731283946715, 21.732054603622014, 51.00491698589211, 46.76951881421003, 62.828604370775416 
