# MEX_intpoint_lon [deg], MEX_intpoint_lat [deg], MEX_intpoint_angle [deg], TGO_intpoint_lon [deg], TGO_intpoint_lat [deg], TGO_intpoint_angle [deg] 
-138.97403021741178, 19.509899333323943, 21.539694659740054, -27.645596015438265, 43.72684404778741, 62.841331189067255 
-139.87238631875277, 19.120063900946107, 21.540268557629698, -27.95895363010411, 44.12683276039351, 62.836750228399076 
-140.7691193492483, 18.73129389222463, 21.5408311876069, -28.267838066309114, 44.52947490786926, 62.83213803350685 
-141.6643281714288, 18.34368212450656, 21.541382391866964, -28.572157070948997, 44.93472147579871, 62.82749605030058 
-142.55811015844162, 17.957320761560087, 21.541922026255943, -28.871814546494427, 45.34252308463837, 62.82282576344313 
-143.45056116902654, 17.5723013344924, 21.542449960285953, -29.16671032190744, 45.752829969171636, 62.81812869583949 
-144.3417755237083, 17.188714761769656, 21.54296607713389, -29.456739910226617, 46.165591956119655, 62.81340640807989 
-145.2318459820672, 16.806651368302063, 21.54347027362383, -29.741794251887548, 46.580758439795524, 62.80866049783625 
-146.12086372095942, 16.426200903558684, 21.54396246019301, -30.021759442772737, 46.9982783556807, 62.803892599213 
-147.00891831356776, 16.047452558679137, 21.544442560841443, -30.296516445905493, 47.41810015179012, 62.799104382051794 
-147.89609770917292, 15.670494982550853, 21.54491051306549, -30.56594078561747, 47.84017175768221, 62.7942975511911 
-148.7824882135454, 15.2954162968227, 21.545366267775236, -30.829902222926908, 48.26444055095622, 62.78947384568079 
-149.66817446986607, 14.922304109827344, 21.545809789196007, -31.088264410764477, 48.69085332106575, 62.78463503795223 
-150.5532394400933, 14.551245529386172, 21.546241054754148, -31.340884527575806, 49.119356230262, 62.77978293294431 
-151.43776438670176, 14.18232717447265, 21.546660054947186, -31.587612887711906, 49.549894771462654, 62.77491936718613 
-152.3218288547275, 13.815635185710832, 21.54706679319861, -31.82829252689258, 49.98241372282511, 62.770046207836785 
-153.20551065406153, 13.451255234687729, 21.54746128569751, -32.06275876089009, 50.41685709878076, 62.76516535168319 
-154.08888584194128, 13.089272532059244, 21.547843561223306, -32.29083871543247, 50.85316809726627, 62.76027872409604 
-154.9720287055984, 12.729771834431139, 21.54821366095579, -32.51235082516476, 51.291289042861884, 62.75538827794554 
-155.85501174502775, 12.372837449997379, 21.5485716382707, -32.72710429933365, 51.731161325520894, 62.75049599247686 
-156.73790565585006, 12.018553242920143, 21.54891755852136, -32.934898551672994, 52.172725334543706, 62.745603872146724 
-157.62077931224795, 11.667002636436564, 21.54925149880628, -33.135522591766076, 52.61592038741811, 62.74071394542195 
-158.50369974996187, 11.318268614679155, 21.549573547723487, -33.328754374942086, 53.060684653110734, 62.735828263540576 
-159.38673214933942, 10.972433723197888, 21.54988380511156, -33.514360107529825, 53.50695506935549, 62.730948899236964 
-160.26993981843762, 10.629580068173567, 21.550182381777958, -33.69209350403913, 53.9546672534406, 62.72607794543163 
-161.15338417618523, 10.289789314313692, 21.550469399214865, -33.861694992569724, 54.40375540594832, 62.72121751388733 
-162.03712473561717, 9.95314268142303, 21.550744989303066, -34.02289086445688, 54.85415220684804, 62.71636973383181 
-162.92121908720026, 9.619720939643571, 21.551009294004125, -34.175392363853504, 55.30578870328482, 62.7115367505492 
-163.8057228822752, 9.289604403359247, 21.551262465041376, -34.31889471261745, 55.758594188341206, 62.706720723940734 
-164.6906898166448, 8.962872923763285, 21.55150466357007, -34.453076065523256, 56.212496069978926, 62.701923827056326 
-165.57617161434567, 8.63960588008735, 21.551736059837236, -34.577596390446054, 56.66741972928833, 62.69714824459827 
-166.46221801164393, 8.319882169493805, 21.55195683283156, -34.69209626777668, 57.12328836708707, 62.692396171398315 
-167.34887674130294, 8.003780195634159, 21.55216716992389, -34.79619560292058, 57.580022837814006, 62.687669810869856 
-168.2361935171744, 7.691377855878997, 21.552367266498706, -34.889492245311715, 58.03754146955881, 62.68297137343601 
-169.12421201916973, 7.38275252722671, 21.552557325577208, -34.97156050694139, 58.495759868951914, 62.67830307493606 
-170.01297387867388, 7.077981050900537, 21.552737557432344, -35.0419495729662, 58.95459070951153, 62.67366713501071 
-170.90251866446656, 6.777139715645726, 21.55290817919638, -35.100181796524964, 59.413943501903766, 62.66906577546853 
-171.79288386922218, 6.480304239741214, 21.55306941446156, -35.14575086947567, 59.8737243444173, 62.66450121863485 
-172.68410489666124, 6.187549751742439, 21.55322149287431, -35.17811986036989, 60.33383565178406, 62.659975685684486 
-173.5762150494323, 5.898950769974506, 21.55336464972354, -35.196719110634916, 60.7941758602916, 62.65549139496071 
-174.46924551780438, 5.614581180797867, 21.553499125523587, -35.200943979654426, 61.254639106928664, 62.651050560281234 
-175.36322536925505, 5.334514215670931, 21.55362516559242, -35.19015242925839, 61.715114880084045, 62.64665538923356 
-176.25818153904018, 5.058822427037306, 21.553743019625458, -35.163662438088544, 62.175487639076195, 62.64230808146132 
-177.15413882183512, 4.787577663067894, 21.553852941265873, -35.12074923644808, 62.63563639952995, 62.63801082694309 
-178.05111986453878, 4.520851041291164, 21.553955187671583, -35.060642352632684, 63.095434281333766, 62.6337658042661 
-178.94914516033322, 4.258712921147867, 21.554050019079835, -34.98252246245259, 63.554748015608176, 62.629575178895614 
-179.84823304409358, 4.001232875509582, 21.554137698369694, -34.88551803478954, 64.01343740679356, 62.62544110144332 
179.25160031075754, 3.7484796612034343, 21.554218490623157, -34.768701767707334, 64.47135474562522, 62.62136570593494 
178.350340893854, 3.5005211885883947, 21.554292662685455, -34.631086812000675, 64.92834416841008, 62.617351108080165 
177.44797685785505, 3.2574244902319767, 21.554360482725002, -34.47162278230974, 65.38424095765436, 62.61339940354626 
176.5444985166821, 3.019255688738837, 21.554422219793747, -34.2891915602738, 65.83887077872835, 62.60951266623739 
175.6398983419306, 2.786079963786246, 21.554478143388376, -34.08260289992666, 66.29204884689709, 62.60569294658136 
174.73417095736437, 2.5579615184242193, 21.55452852301297, -33.85058985298896, 66.74357901871554, 62.60194226982601 
173.82731313140093, 2.3349635447013966, 21.554573627743686, -33.59180404130014, 67.19325280150031, 62.59826263434702 
172.91932376750094, 2.117148188680359, 21.55461372579614, -33.30481081585015, 67.64084827437644, 62.59465600996876 
172.01020389237567, 1.9045765149094505, 21.55464908409581, -32.98808435731142, 68.08612891429395, 62.59112433630085 
171.0999566419313, 1.6973084704205361, 21.554679967852312, -32.64000279233018, 68.52884232046077, 62.587669521091335 
170.18858724487282, 1.4954028483251451, 21.554706640137915, -32.258843423929115, 68.96871883091204, 62.58429343859933 
169.27610300389398, 1.2989172510838636, 21.554729361470947, -31.842778204135108, 69.40547002550453, 62.58099792798833 
168.36251327438626, 1.1079080535264034, 21.55474838940452, -31.389869613427802, 69.8387871105955, 62.57778479174248 
167.44782944060398, 0.9224303657018916, 21.554763978121322, -30.898067155959126, 70.26833918215968, 62.57465579410751 
166.53206488923004, 0.7425379956412268, 21.55477637803475, -30.365204732933858, 70.69377136627574, 62.5716126595581 
165.61523498029268, 0.568283412115032, 21.554785835397144, -29.788999220269616, 71.11470283896465, 62.56865707129372 
164.69735701539062, 0.39971770747260765, 21.554792591915483, -29.16705065175026, 71.53072473151965, 62.56579066976471 
163.77845020319236, 0.23689056064865044, 21.55479688437512, -28.496844496120566, 71.94139793300295, 62.56301505122993 
162.85853562218253, 0.07985020042575303, 21.55479894427201, -27.77575661614001, 72.3462508088157, 62.56033176634861 
161.93763618063667, -0.07135663095842666, 21.554798997453997, -27.001061608760597, 72.74477686352748, 62.557742318807165 
161.0157765738148, -0.21668471376962775, 21.5547972637715, -26.16994534608029, 73.13643238785978, 62.55524816398329 
160.09298323837322, -0.35609038621112693, 21.55479395673817, -25.27952266213762, 73.52063414423787, 62.5528507076489 
159.16928430400284, -0.4895315792434615, 21.554789283201952, -24.32686125349247, 73.89675716299887, 62.55055130471297 
158.24470954231256, -0.6169678506998878, 21.554783443026928, -23.309012970326684, 74.26413274241813, 62.5483512580068 
157.3192903129849, -0.7383604186083019, 21.554776628786414, -22.223053752671913, 74.62204677024124, 62.54625181711222 
156.3930595072427, -0.8536721936311816, 21.554769025467685, -21.06613349011264, 74.969738512122, 62.54425417723507 
155.46605148867383, -0.9628678105364075, 21.55476081018877, -19.83553702243227, 75.30640004251822, 62.54235947812447 
154.53830203147186, -1.0659136586132918, 21.5547521519276, -18.52875731526127, 75.63117652475495, 62.54056880304031 
153.60984825616055, -1.1627779109501823, 21.55474321126398, -17.143581494651997, 75.94316757678496, 62.53888317776902 
152.68072856288018, -1.2534305524920677, 21.554734140134588, -15.678189860416339, 76.24142998418749, 62.53730356969037 
151.75098256232224, -1.3378434067993712, 21.554725081601553, -14.13126717603125, 76.52498203739215, 62.53583088689472 
150.8206510044106, -1.4159901614319503, 21.554716169634563, -12.502124422299044, 76.79280976993857, 62.5344659773535 
149.88977570483448, -1.4878463918855473, 21.5547075289072, -10.790827799721756, 77.04387535167582, 62.533209628143005 
148.95839946954928, -1.5533895840115695, 21.55469927460744, -8.99833011300247, 77.27712783763783, 62.53206256472264 
148.02656601736874, -1.6125991548548961, 21.55469151226276, -7.126597876421917, 77.49151638307404, 62.531025450268885 
147.0943199007807, -1.6654564718486449, 21.554684337580003, -5.1787257257604615, 77.68600590332106, 62.53009888506554 
146.16170642512634, -1.7119448703091347, 21.554677836300264, -3.1590282774450147, 77.85959498389755, 62.52928340595099 
145.2287715662897, -1.7520496691791854, 21.5546720840689, -1.07309877036784, 78.011335638115, 62.52857948582349 
144.295561887051, -1.785758184972707, 21.554667146320988, 1.072175986595984, 78.14035428177499, 62.527987533204914 
143.36212445226352, -1.8130597438787233, 21.554663078182195, 3.268653356002607, 78.24587307121524, 62.52750789186353 
142.42850674301823, -1.8339456919884354, 21.55465992438536, 5.507031361385994, 78.3272305634206, 62.52714084049632 
141.4947565699661, -1.8484094036143301, 21.5546577192028, 7.777005671980162, 78.3839005396099, 62.52688659247144 
140.56092198597068, -1.8564462876761794, 21.554656486394453, 10.067483509631307, 78.41550781778464, 62.526745295630555 
139.62705119826694, -1.858053792134467, 21.554656239171933, 12.366845230361616, 78.42183998531756, 62.52671703215243 
138.69319248030573, -1.8532314064578184, 21.55465698017858, 14.663239149148428, 78.40285421214928, 62.52680181847661 
137.75939408346207, -1.8419806621168517, 21.55465870148541, 16.944891351734917, 78.35867863959531, 62.526999605288275 
136.82570414878927, -1.824305131102984, 21.554661384603147, 19.20041045998253, 78.28960824027155, 62.527310277563856 
135.89217061899797, -1.80021042247668, 21.55466500051017, 21.419067919315207, 78.19609545908448, 62.52773365467753 
134.95884115083987, -1.769704176955674, 21.55466950969645, 23.59103724494668, 78.07873631860203, 62.52826949056831 
134.0257630280732, -1.7327960595596386, 21.554674862223273, 25.707580269983932, 77.93825295779511, 62.52891747396763 
133.0929830751847, -1.6894977503335806, 21.554680997798847, 27.76117397946091, 77.77547374168523, 62.52967722868694 
132.1605475720397, -1.639822933178092, 21.554687845869623, 29.745577108489826, 77.59131212272801, 62.530548313965305 
131.22850216962678, -1.5837872828201147, 21.554695325727053, 31.655840563841664, 77.38674536476208, 62.531530224876256 
130.29689180705972, -1.5214084499634828, 21.554703346630003, 33.48826937916125, 77.1627940836521, 62.53262239279317 
129.36576062999305, -1.4527060446635753, 21.554711807942205, 35.2403461158689, 76.92050334908532, 62.53382418591333 
128.43515191060143, -1.3777016179756567, 21.554720599284995, 36.9106264257087, 76.66092586293736, 62.53513490983889 
127.50510796926694, -1.2964186419312125, 21.55472960070482, 38.49861713913178, 76.38510750925721, 62.536553808215366 
126.57567009810927, -1.208882487901289, 21.554738682855465, 40.00464607442019, 76.0940753788876, 62.53808006342521 
125.64687848648781, -1.1151204034099265, 21.554747707194657, 41.42973112535708, 75.78882821881632, 62.53971279733709 
124.71877214859488, -1.015161487465073, 21.554756526194925, 42.77545438306179, 75.470329145658, 62.541451072108956 
123.7913888532509, -0.909036664477903, 21.554764983568226, 44.043845306572784, 75.13950039170298, 62.54329389104422 
122.86476505600321, -0.7967786568449096, 21.554772914504237, 45.23727542101247, 74.79721981486381, 62.545240199499766 
121.93893583362149, -0.6784219562702672, 21.554780145921946, 46.358365763733794, 74.44431889324258, 62.54728888584508 
121.01393482107089, -0.5540027939087145, 21.554786496734035, 47.409907335009954, 74.08158193351053, 62.54943878247055 
120.08979415103722, -0.4235591094114968, 21.554791778124056, 48.39479412171894, 73.70974624319702, 62.551688666844356 
119.16654439606576, -0.28713051896022, 21.55479579383567, 49.31596781125382, 73.32950304491277, 62.55403726261625 
118.2442145133673, -0.14475828237488295, 21.55479834047377, 50.17637305193806, 72.94149894138026, 62.556483240766894 
117.3228317923333, 0.003514730615863823, 21.554799207817123, 50.97892199926001, 72.5463377710287, 62.559025220801324 
116.40242180479419, 0.15764407485356904, 21.554798179141905, 51.726466872953964, 72.14458272297516, 62.56166177198508 
115.48300835804245, 0.31758376488812345, 21.55479503155594, 52.4217793041036, 71.73675860639128, 62.56439141462147 
114.56461345063508, 0.48328631068534766, 21.554789536343062, 53.06753534725328, 71.32335419206449, 62.567212621368334 
113.6472572309782, 0.6547027538138702, 21.554781459317198, 53.66630515009179, 70.9048245633155, 62.57012381859275 
112.73095795868957, 0.8317827040214469, 21.55477056118567, 54.22054639858288, 70.48159342949235, 62.57312338776191 
111.81573196872422, 1.0144743761114166, 21.554756597921283, 54.732600779086184, 70.05405536832785, 62.57620966686864 
110.90159363824034, 1.2027246270308312, 21.55473932114263, 55.20469281522618, 69.62257797389383, 62.579380951889654 
109.98855535617541, 1.3964789930827126, 21.554718478502252, 55.63893054279893, 69.18750389509478, 62.58263549827492 
109.07662749549287, 1.5956817271764963, 21.554693814081997, 56.03730757943271, 68.74915275598397, 62.58597152246623 
108.16581838805438, 1.8002758360320472, 21.554665068795078, 56.40170622681482, 68.30782295399601, 62.589387203443295 
107.25613430206408, 2.0102031172545582, 21.554631980794454, 56.73390131258916, 67.863793335761, 62.59288068429536 
106.34757942202631, 2.225404196199648, 21.55459428588679, 57.035564537466044, 67.41732475275488, 62.59645007381669 
105.44015583115126, 2.4458185625501256, 21.55455171795157, 57.30826914183078, 66.96866150085347, 62.6000934481237 
104.53386349613855, 2.6713846065282, 21.554504009364774, 57.55349474640604, 66.518032649074, 62.603808852292566 
103.62870025426305, 2.902039654669619, 21.55445089142663, 57.77263225450736, 66.06565326354222, 62.60759430201423 
102.72466180268368, 3.1377200050886067, 21.55439209479275, 57.9669887302327, 65.61172553313394, 62.61144778526621 
101.82174168989182, 3.378360962165425, 21.554327349908185, 58.137792188545106, 65.1564398033937, 62.61536726399838 
100.9199313092121, 3.6238968705912047, 21.554256387443868, 58.28619625051142, 64.69997552529972, 62.61935067583118 
100.01921989426708, 3.874261148707546, 21.55417893873468, 58.41328463070916, 64.24250212528167, 62.6233959357642 
99.11959451631328, 4.129386321081551, 21.554094736218808, 58.52007543464814, 63.784179802642576, 62.627500937893515 
98.22104008335587, 4.389204050259791, 21.55400351387765, 58.607525252517696, 63.32516026022566, 62.631663557135305 
97.32353934094681, 4.6536451676481585, 21.553905007675738, 58.67653304211359, 62.86558737382049, 62.63588165095445 
96.42707287457189, 4.922639703467139, 21.55379895600014, 58.727943798798556, 62.40559780544138, 62.640153061095916 
95.53161911353016, 5.1961169157357645, 21.5536851000987, 58.76255201411316, 61.945321565244946, 62.64447561531702 
94.63715433621132, 5.474005318240009, 21.553563184516577, 58.78110492743216, 61.484882526494715, 62.64884712911879 
93.74365267667541, 5.756232707445104, 21.553432957530543, 58.78430557706129, 61.02439889763246, 62.65326540747458 
92.85108613244182, 6.042726188313621, 21.553294171580397, 58.77281565855758, 60.56398365518435, 62.657728246554086 
91.9594245733951, 6.333412198994813, 21.55314658369699, 58.74725819896555, 60.103744940917636, 62.66223343544104 
91.06863575171691, 6.628216534353324, 21.552989955926236, 58.70822005620152, 59.643786426370326, 62.66677875784249 
90.17868531275673, 6.92706436830826, 21.55282405574867, 58.65625425307587, 59.18420764760427, 62.67136199378842 
89.2895368067548, 7.229880274956716, 21.552648656493854, 58.591882155483944, 58.72510431278037, 62.67598092131943 
88.40115170133558, 7.536588248458301, 21.552463537749183, 58.51559550417959, 58.26656858492316, 62.68063331816119 
87.5134893946913, 7.847111721660249, 21.552268485762557, 58.42785830931133, 57.80868934202807, 62.685316963383634 
86.62650722938069, 8.161373583444814, 21.552063293838327, 58.329108616583696, 57.35155241647168, 62.69002963904379 
85.74016050666971, 8.479296194783885, 21.551847762725995, 58.21976015353451, 56.89524081550569, 62.69476913180989 
84.85440250134717, 8.800801403487366, 21.551621701001302, 58.100203864009664, 56.43983492445467, 62.699533234565756 
83.96918447695072, 9.125810557634953, 21.551384925438963, 57.970809338489566, 55.985412694089064, 62.704319747993864 
83.08445570134424, 9.454244517682724, 21.551137261376777, 57.83192614748476, 55.53204981351152, 62.70912648213522 
82.20016346259258, 9.786023667238254, 21.55087854307044, 57.68388508478465, 55.079819869772564, 62.71395125792493 
81.31625308508295, 10.121067922500254, 21.550608614038765, 57.526999326915146, 54.62879449532091, 62.718791908702165 
80.43266794585031, 10.45929674036029, 21.550327327398755, 57.36156551474806, 54.1790435042937, 62.723646281692446 
79.54934949106604, 10.800629125166624, 21.550034546190044, 57.18786476280619, 53.73063501856085, 62.72851223946181 
78.66623725265788, 11.14498363415138, 21.549730143688397, 57.00616360142834, 53.283635584355274, 62.73338766134088 
77.7832688650323, 11.492278381524747, 21.549414003707703, 56.81671485659769, 52.83811028024596, 62.73827044481794 
76.90038008187835, 11.842431041240813, 21.5490860208902, 56.61975847189688, 52.39412281714321, 62.74315850689959 
76.01750479303645, 12.195358848442057, 21.548746100984413, 56.415522276732545, 51.951735630963675, 62.748049785438056 
75.13457504142289, 12.550978599590335, 21.54839416111052, 56.204222704672674, 51.5110099685275, 62.75294224042376 
74.25152104000708, 12.90920665129421, 21.548030130012734, 55.986065465458985, 51.072005967209016, 62.757833855242446 
73.36827118884398, 13.269958917843889, 21.54765394829833, 55.761246173995545, 50.63478272881654, 62.762722637895315 
72.4847520921729, 13.633150867465991, 21.547265568663104, 55.529950939371005, 50.19939838813576, 62.767606622181624 
71.60088857559856, 13.99869751731256, 21.546864956102805, 55.29235691674607, 49.76591017653269, 62.77248386884287 
70.71660370337894, 14.366513427199218, 21.546452088110357, 55.04863282472726, 49.33437448097852, 62.777352466667246 
69.8318187958506, 14.736512692109562, 21.546026954858466, 54.79893943065391, 48.904846898826904, 62.78221053355385 
68.9464534470306, 15.108608933483477, 21.545589559367524, 54.54343000604494, 48.47738228864671, 62.78705621753582 
