# MEX_intpoint_lon [deg], MEX_intpoint_lat [deg], MEX_intpoint_angle [deg], TGO_intpoint_lon [deg], TGO_intpoint_lat [deg], TGO_intpoint_angle [deg] 
-139.05751309979948, 19.53005106061576, 21.59610340859604, -27.600886244374333, 43.050859334084926, 62.85568799788621 
-139.95403568924235, 19.13715604483418, 21.596683928656947, -27.902956757960265, 43.45362348775878, 62.85107665584681 
-140.84893413166557, 18.745343197467392, 21.597252974571415, -28.200367824689828, 43.85901427530545, 62.84643284091392 
-141.74230855927405, 18.35470564369448, 21.597810386830876, -28.493023489725275, 44.26698080896249, 62.84175800984346 
-142.63425757667895, 17.965335853025476, 21.598356019827655, -28.780823849984195, 44.677471792171296, 62.83705365963946 
-143.52487823696495, 17.577325660968523, 21.598889741870234, -29.0636648230149, 45.090435496431404, 62.83232132703787 
-144.41426601893446, 17.190766289764646, 21.59941143518164, -29.341437902768153, 45.50581973616445, 62.82756258794247 
-145.30251480538726, 16.805748368154088, 21.59992099588118, -29.614029901375513, 45.923571841467876, 62.8227790568125 
-146.1897168623058, 16.42236195013915, 21.600418333949396, -29.88132267597779, 46.3436386286289, 62.81797238600263 
-147.0759628188245, 16.04069653271142, 21.600903373176475, -30.143192839575583, 46.76596636825746, 62.8131442650558 
-147.96134164787338, 15.660841072512532, 21.601376051094256, -30.399511454796514, 47.19050075088544, 62.8082964199484 
-148.84594064739355, 15.282884001399838, 21.60183631889175, -30.65014370939046, 47.61718684986574, 62.80343061228954 
-149.72984542203284, 14.906913240889667, 21.602284141314502, -30.894948572175036, 48.045969081390425, 62.79854863847346 
-150.6131398652383, 14.533016215452626, 21.602719496547966, -31.133778428057095, 48.47679116143163, 62.79365232878684 
-151.49590614167067, 14.161279864636954, 21.60314237608494, -31.366478690652393, 48.90959605939092, 62.7887435464707 
-152.3782246698747, 13.791790653997188, 21.603552784577342, -31.59288739091485, 49.34432594822486, 62.78382418673785 
-153.26017410514768, 13.424634584807054, 21.603950739672634, -31.81283474006691, 49.78092215079267, 62.77889617574684 
-154.14183132255638, 13.059897202536495, 21.60433627183495, -32.026142664994865, 50.219325082150384, 62.773961469532495 
-155.0232714000593, 12.697663604074638, 21.604709424151324, -32.23262431413521, 50.659474187489955, 62.76902205289424 
-155.90456760170144, 12.338018443681129, 21.605070252123284, -32.43208353173141, 51.10130787539571, 62.764079938243235 
-156.78579136085332, 11.981045937650306, 21.60541882344402, -32.62431429818305, 51.54476344605957, 62.75913716440859 
-157.66701226347485, 11.626829867673369, 21.605755217761548, -32.80910013404178, 51.98977701406507, 62.754195795404044 
-158.54829803139128, 11.275453582885634, 21.606079526428097, -32.9862134650291, 52.436283425313256, 62.749257919156044 
-159.42971450557627, 10.927000000586757, 21.606391852236143, -33.155414945262336, 52.88421616762553, 62.74432564619413 
-160.3113256294414, 10.581551605623776, 21.60669230914139, -33.31645273567256, 53.333507274514446, 62.73940110830462 
-161.1931934321412, 10.239190448427934, 21.60698102197315, -33.469061734386585, 53.784087221567034, 62.73448645714907 
-162.0753780119069, 9.899998141697747, 21.607258126132386, -33.61296275562166, 54.23588481483367, 62.72958386284827 
-162.9579375194293, 9.564055855722716, 21.607523767278003, -33.74786165340725, 54.688827070558176, 62.7246955125334 
-163.8409281413165, 9.231444312343113, 21.607778101001617, -33.87344838620561, 55.142839085523754, 62.71982360886506 
-164.72440408365972, 8.902243777543694, 21.608021292491355, -33.98939601825118, 55.59784389722041, 62.71497036852223 
-165.60841755574384, 8.57653405268029, 21.608253516185176, -34.09535965317264, 56.05376233296597, 62.71013802066178 
-166.49301875394733, 8.254394464340697, 21.608474955414007, -34.19097529520115, 56.51051284703041, 62.70532880535063 
-167.37825584587935, 7.935903852842728, 21.6086858020353, -34.275858633010294, 56.96801134472479, 62.70054497197128 
-168.26417495480885, 7.621140559374766, 21.60888625605752, -34.34960374098083, 57.42617099231802, 62.69578877760283 
-169.1508201444442, 7.310182411786016, 21.60907652525588, -34.4117816924447, 57.884902011538486, 62.691062485378616 
-170.03823340412708, 7.003106709035971, 21.609256824780093, -34.46193907924574, 58.34411145730171, 62.68636836282229 
-170.92645463450958, 6.699990204314919, 21.6094273767544, -34.499596431771, 58.80370297717856, 62.68170868016389 
-171.81552163378606, 6.400909086849867, 21.6095884098706, -34.52424653347077, 59.26357655098134, 62.677085708637144 
-172.70547008455705, 6.105938962412576, 21.609740158974443, -34.535352623814546, 59.72362820869671, 62.67250171876065 
-173.59633354140578, 5.815154832548974, 21.60988286464616, -34.53234648364816, 60.18374972483354, 62.66795897860347 
-174.4881434192703, 5.528631072552351, 21.610016772775356, -34.5146263970507, 60.64382828708072, 62.66345975203776 
-175.3809289826991, 5.2464414082047695, 21.610142134131213, -34.48155498407483, 61.1037461369852, 62.6590062969799 
-176.27471733607965, 4.968658891314794, 21.610259203928205, -34.43245689923336, 61.56338018016241, 62.65460086362191 
-177.16953341493212, 4.695355874081917, 21.61036824138811, -34.36661639132184, 62.02260156334286, 62.65024569265496 
-178.06539997836296, 4.4266039823214385, 21.61046950929886, -34.28327472120681, 62.481275215339124, 62.64594301348711 
-178.96233760277445, 4.162474087586441, 21.610563273570754, -34.181627435642945, 62.9392593487895, 62.641695042456725 
-179.86036467692776, 3.9030362782267782, 21.610649802790654, -34.060821497107, 63.39640491930215, 62.63750398104392 
179.24050260154252, 3.6483598294279243, 21.610729367774713, -33.91995227217057, 63.852555038388566, 62.633372014081495 
178.34025022806202, 3.3985131722757966, 21.61080224112031, -33.758060384222745, 64.3075443363467, 62.6293013079679 
177.4388663914019, 3.1535638618970987, 21.610868696757638, -33.574128440568224, 64.76119827103697, 62.625294008883536 
176.5363414722146, 2.9135785447273768, 21.610929009501675, -33.36707764927637, 65.21333237830287, 62.62135224101278 
175.63266803972502, 2.6786229249628577, 21.610983454605023, -33.13576434788756, 65.66375145963332, 62.6174781047736 
174.72784084647958, 2.4487617302547036, 21.611032307312254, -32.87897647448712, 66.1122487025677, 62.613673675056894 
173.8218568210596, 2.224058676707857, 21.611075842416323, -32.59543002207844, 66.55860472932919, 62.60994099947692 
172.91471505866778, 2.004576433249463, 21.611114333817678, -32.28376553002061, 67.00258656927006, 62.606282096635894 
172.0064168094987, 1.7903765854350293, 21.61114805408653, -31.942544682002758, 67.4439465509621, 62.60269895440363 
171.09696546480941, 1.5815195987633146, 21.61117727402902, -31.570247099118486, 67.88242111021725, 62.59919352821497 
170.18636654060842, 1.3780647815736877, 21.61120226225768, -31.165267439654524, 68.31772951103879, 62.59576773938663 
169.27462765888765, 1.1800702476024618, 21.61122328476695, -30.725912944830696, 68.7495724775582, 62.5924234734555 
168.36175852632664, 0.9875928782772909, 21.611240604514087, -30.250401602563258, 69.17763073649988, 62.58916257854032 
167.44777091040334, 0.8006882848308282, 21.611254481006174, -29.73686113999581, 69.60156347174825, 62.58598686372898 
166.5326786128538, 0.6194107703173648, 21.611265169893777, -29.18332910060516, 70.02100669530046, 62.58289809749266 
165.61649744042762, 0.4438132916179134, 21.611272922571615, -28.587754313540344, 70.43557154243075, 62.579898006129596 
164.69924517289513, 0.2739474215209817, 21.611277985787012, -27.948000121606995, 70.84484250344558, 62.57698827223959 
163.78094152826966, 0.10986331096804071, 21.61128060125643, -27.261849799622393, 71.24837561017179, 62.57417053323175 
162.86160812521533, -0.04839034844637067, 21.61128100529075, -26.527014665707714, 71.64569660250591, 62.57144637986658 
161.9412684426209, -0.2007663616287146, 21.611279428429643, -25.74114546241921, 72.0362991091783, 62.56881735483472 
161.01994777632802, -0.3472190667028744, 21.61127609508572, -24.901847659036974, 72.4196428875555, 62.5662849513744 
160.09767319301267, -0.4877043711966186, 21.61127122319863, -24.006701395562704, 72.79515217997962, 62.56385061192803 
159.17447348122656, -0.6221797876057931, 21.611265023899936, -23.053286845394464, 73.16221425890666, 62.56151572684116 
158.2503790996171, -0.7506044682440325, 21.611257701188816, -22.039215806696404, 73.5201782498995, 62.559281633104405 
157.32542212235276, -0.872939239286424, 21.61124945161941, -20.96217032822149, 73.86835434009191, 62.557149613140155 
156.39963618179232, -0.9891466339162857, 21.61124046399987, -19.819949116156128, 74.20601349949808, 62.55512089363595 
155.4730564084456, -1.099190924485637, 21.611230919103747, -18.610522333267028, 74.5323878625254, 62.553196644425405 
154.54571936828472, -1.2030381536013963, 21.611220989394024, -17.332095166329836, 74.84667193575837, 62.551377977418554 
153.6176629974742, -1.3006561640513201, 21.61121083876015, -15.98318017769146, 75.14802481339908, 62.5496659455828 
152.68892653459957, -1.3920146274859155, 21.6112006222684, -14.562677949400246, 75.43557359085703, 62.54806154197581 
151.75955045048264, -1.4770850717753847, 21.611190485925963, -13.069964858488166, 75.70841816638224, 62.54656569883178 
150.82957637568407, -1.555840906963338, 21.611180566459026, -11.504985988664687, 75.96563760627998, 62.54517928670143 
149.89904702580017, -1.6282574497426432, 21.61117099110509, -9.868350208192174, 76.20629821685952, 62.5439031136484 
148.96800612467337, -1.6943119463822696, 21.611161877420002, -8.161423378383358, 76.42946341190316, 62.54273792450125 
148.03649832564227, -1.7539835940379058, 21.611153333099605, -6.386414592466251, 76.63420538528305, 62.54168440016357 
147.1045691309676, -1.8072535603835902, 21.611145455816626, -4.546449411811784, 76.81961849375263, 62.54074315698202 
146.17226480957632, -1.8541050015060083, 21.61113833307278, -2.6456234325787866, 76.98483412753266, 62.5399147461739 
145.23963231327576, -1.894523078007971, 21.611132042066288, -0.6890293666299997, 77.12903670299374, 62.53919965331434 
144.30671919159488, -1.9284949692727527, 21.61112664957517, 1.3172486681824784, 77.25148026417469, 62.53859829788441 
143.37357350541575, -1.956009885846227, 21.61112221185621, 3.3661786562643354, 77.35150504416876, 62.538111032880195 
142.44024373956617, -1.9770590798992125, 21.611118774559962, 5.449864885749792, 77.42855323261917, 62.537738144483605 
141.5067787145452, -1.99163585373832, 21.61111637266177, 7.559672910163355, 77.48218314103718, 62.53747985179545 
140.57322749756102, -1.999735566339223, 21.61111503040889, 9.686392045046148, 77.51208096942058, 62.53733630663084 
139.63963931306165, -2.001355637882441, 21.611114761283922, 11.820428799100192, 77.51806946458514, 62.53730759337748 
138.70606345294144, -1.9964955522777688, 21.611115567984385, 13.952021639494921, 77.50011292140022, 62.53739372891691 
137.77254918660879, -1.9851568576695096, 21.611117442418713, 16.07146531696798, 77.45831819990883, 62.53759466260855 
136.83914567109994, -1.9673431649210769, 21.6111203657184, 18.169331975836837, 77.39293169094178, 62.53791027633725 
135.90590186142492, -1.9430601440835527, 21.61112430826654, 20.23667661230326, 77.30433243039222, 62.53834038462336 
134.97286642132846, -1.9123155188590126, 21.6111292297426, 22.26521606523782, 77.19302180645464, 62.538884734796035 
134.04008763464992, -1.875119059075619, 21.611135079183256, 24.247473362660624, 77.05961049772297, 62.53954300722902 
133.10761331745974, -1.8314825711973863, 21.6111417950595, 26.176882493734887, 76.90480340478166, 62.54031481563875 
132.17549073115038, -1.7814198868976259, 21.61114930536958, 28.04785206398282, 76.72938338674545, 62.54119970744443 
131.24376649665192, -1.7249468497306515, 21.611157527747952, 29.855789391701265, 76.53419459117848, 62.54219716418953 
130.3124865099393, -1.6620812999421608, 21.611166369589874, 31.597089095968688, 76.32012608386252, 62.54330660202422 
129.3816958589926, -1.5928430574639654, 21.611175728191625, 33.26909193549624, 76.0880963621581, 62.54452737224804 
128.4514387423633, -1.5172539031440546, 21.611185490905992, 34.87002055093951, 75.83903919182046, 62.54585876191233 
127.52175838949512, -1.4353375582678778, 21.61119553531311, 36.39889892445851, 75.57389105993742, 62.547299994481115 
126.59269698293764, -1.347119662431478, 21.611205729406077, 37.85546195530644, 75.2935804001365, 62.5488502305502 
125.6642955825848, -1.2526277498315168, 21.611215931791346, 39.24006074429835, 74.99901862962882, 62.55050856862308 
124.73659405206044, -1.1518912240413508, 21.61122599190357, 40.553568162409285, 74.69109294567957, 62.55227404594304 
123.80963098736392, -1.0449413313461364, 21.61123575023452, 41.797288199866365, 74.37066076257436, 62.55414563937987 
122.88344364788065, -0.9318111327134653, 21.611245038575962, 42.97287156289507, 74.03854562721983, 62.55612226637068 
121.9580678898508, -0.8125354744791199, 21.611253680275908, 44.08223907646877, 73.69553442867543, 62.55820278591313 
121.03353810238063, -0.6871509578303802, 21.611261490508216, 45.127513698761064, 73.34237570996704, 62.560385999609814 
120.1098871460706, -0.5556959071718365, 21.611268276554902, 46.11096136555794, 72.97977889526341, 62.56267065276285 
119.18714629432382, -0.41821033746065095, 21.61127383810094, 47.034940451602516, 72.60841425810561, 62.56505543551693 
118.26534517738774, -0.27473592060004615, 21.611277967541124, 47.90185934118057, 72.22891347370046, 62.567538984049534 
117.34451172917291, -0.12531595098124826, 21.611280450298636, 48.71414141806392, 71.84187061785994, 62.57011988180663 
116.42467213688073, 0.030004689734991687, 21.611281065154767, 49.47419669053693, 71.44784349519118, 62.572796660782664 
115.5058507934634, 0.19117956850524537, 21.61127958458952, 50.18439923794034, 71.04735519839421, 62.57556780284274 
114.58807025292838, 0.35816073736641385, 21.611275775132498, 50.84706968153142, 70.64089581825202, 62.578431741086 
113.67135118849002, 0.5308987703824761, 21.611269397723753, 51.464461928714044, 70.22892423969392, 62.58138686124768 
112.7557123535628, 0.709342800982916, 21.611260208084, 52.038753503640095, 69.8118699730296, 62.584431503138866 
111.84117054557912, 0.893440559601252, 21.611247957093752, 52.572038849802986, 69.39013498110702, 62.58756396212193 
110.92774057260804, 1.083138411523147, 21.61123239118093, 53.06632506514974, 68.96409547287165, 62.59078249061947 
110.01543522274207, 1.2783813948544465, 21.611213252716354, 53.523529603157186, 68.53410364178363, 62.59408529965551 
109.10426523621048, 1.479113258521173, 21.611190280416615, 53.945479541578365, 68.10048933399612, 62.597470560426835 
108.19423928017163, 1.6852765002148993, 21.61116320975387, 54.3339120826786, 67.66356163633074, 62.600936405902374 
107.28536392612813, 1.8968124041990742, 21.611131773371874, 54.69047600409244, 67.22361037811004, 62.60448093244899 
106.37764362990345, 2.1136610788936694, 21.611095701507914, 55.01673382785409, 66.78090754401242, 62.60810220148189 
105.47108071411157, 2.3357614941580693, 21.61105472241983, 55.314164516960375, 66.33570859746656, 62.611798241136995 
104.56567535304667, 2.5630515181942917, 21.611008562817812, 55.58416654450266, 65.88825371584755, 62.615567047964404 
103.66142555991394, 2.7954679539955793, 21.610956948300235, 55.82806121055389, 65.43876893999463, 62.61940658863975 
102.75832717631879, 3.0329465752677853, 21.610899603793044, 56.04709610725388, 64.98746724144533, 62.62331480169266 
101.85637386392837, 3.2754221617540304, 21.61083625399204, 56.242448653533316, 64.53454951135575, 62.627289599249266 
100.9555570982141, 3.5228285338961447, 21.61076662380765, 56.41522963824716, 64.08020547541993, 62.631328868787655 
100.05586616418383, 3.775098586769151, 21.610690438811286, 56.56648672469794, 63.624614539270794, 62.635430474903586 
99.1572881540073, 4.03216432322851, 21.610607425683163, 56.69720788110362, 63.167946568880524, 62.63959226108503 
98.25980796643913, 4.293956886212631, 21.61051731266045, 56.808324710931075, 62.710362610420574, 62.643812051493086 
97.36340830794026, 4.560406590146741, 21.610419829985663, 56.90071566454401, 62.2520155539123, 62.64808765274777 
96.46806969540042, 4.831442951396906, 21.610314710354395, 56.97520911962104, 61.79305074482466, 62.65241685571623 
95.57377046036112, 5.1069947177267965, 21.610201689361933, 57.032586322553634, 61.33360654756957, 62.65679743730172 
94.68048675464203, 5.386989896712287, 21.610080505948076, 57.07358418676161, 60.873814864621345, 62.66122716223157 
93.78819255727127, 5.671355783072874, 21.60995090283975, 57.09889794675577, 60.4138016147538, 62.66570378484169 
92.89685968262383, 5.960018984881367, 21.6098126269906, 57.10918366899059, 59.95368717365503, 62.670225050856246 
92.00645778967204, 6.252905448616837, 21.609665430017195, 57.10506062221513, 59.49358677994836, 62.674788699160544 
91.11695439225493, 6.54994048302875, 21.60950906863119, 57.087113511256334, 59.033610909424326, 62.67939246356467 
90.22831487027541, 6.851048781782847, 21.609343305066798, 57.05589457904322, 58.57386562007445, 62.684034074557246 
89.34050248173658, 7.156154444862875, 21.609167907503153, 57.01192558227597, 58.114452870314025, 62.6887112610462 
88.45347837553199, 7.465180998704359, 21.60898265048094, 56.95569964652034, 57.65547081258977, 62.693421752085776 
87.56720160490721, 7.778051415039967, 21.608787315312746, 56.88768300671171, 57.19701406438909, 62.69816327858744 
86.68162914151502, 8.094688128438152, 21.608581690486567, 56.80831663912561, 56.739173958501134, 62.70293357501337 
85.79671588998853, 8.415013052519873, 21.60836557206203, 56.71801779084102, 56.28203877422484, 62.70773038105068 
84.91241470296283, 8.738947594839992, 21.60813876405867, 56.617181412617875, 55.82569395107687, 62.7125514432647 
84.0286763964782, 9.066412670422974, 21.607901078835912, 56.50618150094776, 55.37022228641987, 62.717394516729925 
83.14544976570397, 9.397328713944354, 21.607652337464113, 56.3853723548354, 54.91570411831122, 62.7222573666367 
82.26268160092675, 9.73161569055174, 21.607392370086238, 56.25508975263924, 54.462217494760615, 62.7271377698728 
81.38031670375062, 10.069193105321398, 21.607121016269712, 56.11565205405305, 54.009838330483234, 62.732033516577694 
80.49829790346436, 10.409980011348063, 21.606838125347938, 55.9673612320544, 53.55864055214212, 62.736942411668416 
79.61656607353378, 10.753895016468041, 21.606543556751042, 55.81050383938633, 53.10869623298769, 62.74186227633593 
78.73506014818524, 11.100856288616963, 21.60623718032538, 55.6453519138795, 52.660075717724936, 62.746790949509915 
77.85371713905016, 11.450781559825877, 21.60591887664149, 55.47216382666836, 52.21284773836718, 62.75172628929161 
76.9724721518479, 11.803588128860332, 21.605588537289833, 55.29118507710696, 51.76707952177073, 62.756666174352496 
76.09125840308968, 12.159192862509542, 21.60524606516424, 55.10264903795168, 51.322836889485146, 62.761608505298625 
75.2100072367928, 12.517512195533483, 21.60489137473242, 54.90677765414947, 50.88018435050004, 62.766551205998496 
74.32864814120116, 12.878462129277752, 21.604524392293314, 54.70378209835179, 50.439185187420016, 62.771492224874066 
73.44710876551373, 13.241958228967343, 21.604145056220798, 54.493863386068, 49.99990153655397, 62.77642953615355 
72.56531493663144, 13.607915619691678, 21.603753317193657, 54.27721295317631, 49.56239446236448, 62.78136114108493 
71.68319067593711, 13.976248981095019, 21.603349138411147, 54.05401319832579, 49.12672402668532, 62.78628506910946 
70.80065821613344, 14.346872540787187, 21.602932495794175, 53.82443799259008, 48.69294935308077, 62.79119937899424 
69.9176380181682, 14.719700066491395, 21.60250337817165, 53.58865315857095, 48.26112868668984, 62.79610215992255 
69.03404878828617, 15.0946448569468, 21.602061787451724, 53.346816920997554, 47.831319449869234, 62.80099153254186 
