# MEX_intpoint_lon [deg], MEX_intpoint_lat [deg], MEX_intpoint_angle [deg], TGO_intpoint_lon [deg], TGO_intpoint_lat [deg], TGO_intpoint_angle [deg] 
-139.176383805947, 19.558410347456274, 21.677068602377165, -27.529538950216455, 42.0771961059596, 62.87649937299187 
-140.07025669416868, 19.161154194155426, 21.677658632245123, -27.81616524672764, 42.48366444120968, 62.8718521882714 
-140.96250456680718, 18.76500430760655, 21.678236889634466, -28.097884917017744, 42.89271676936793, 62.86717074967857 
-141.8532293641064, 18.370054234737324, 21.678803212592914, -28.37459757864447, 43.3042994942974, 62.862456527166835 
-142.74253144365983, 17.97639686425268, 21.679357453430992, -28.64619879769131, 43.71835854943862, 62.8577110330843 
-143.6305095581111, 17.584124449375793, 21.679899478737152, -28.912579857598622, 44.13483937110186, 62.85293582165054 
-144.5172608339686, 17.193328629607155, 21.680429169375643, -29.173627515417195, 44.553686869580794, 62.848132488382745 
-145.4028807513904, 16.80410045146625, 21.680946420467272, -29.429223744671056, 44.974845397958994, 62.84330266947144 
-146.2874631248064, 16.416530388181975, 21.681451141352962, -29.679245463959656, 45.398258718471574, 62.838448041106155 
-147.17110008425533, 16.03070835830052, 21.68194325554036, -29.923564250369306, 45.82386996627179, 62.833570318750844 
-148.05388205732413, 15.64672374318054, 21.682422700633516, -30.162046036698836, 46.25162161044086, 62.82867125637046 
-148.9358977515869, 15.264665403347971, 21.682889428245787, -30.394550791435964, 46.68145541206497, 62.82375264560796 
-149.81723413745, 14.884621693683727, 21.6833434038961, -30.62093218034753, 47.11331237918944, 62.81881631491295 
-150.6979764313196, 14.506680477419403, 21.683784606888747, -30.841037208468897, 47.5471327184437, 62.81386412862223 
-151.5782080790165, 14.13092913891766, 21.684213030176945, -31.054705841194984, 47.982855783113145, 62.80889798599299 
-152.45801073937196, 13.75745459521487, 21.684628680210295, -31.261770603087776, 48.42042001741549, 62.80391982018923 
-153.3374642679463, 13.386343306305605, 21.68503157676641, -31.462056152922024, 48.85976289671819, 62.79893159722164 
-154.21664670082106, 13.017681284149145, 21.685421752766963, -31.65537883339287, 49.300820863411275, 62.79393531484284 
-155.0956342384231, 12.651554100380148, 21.685799254078397, -31.841546193805563, 49.743529258125534, 62.7889330013974 
-155.9745012293462, 12.2880468927062, 21.686164139297603, -32.02035648395857, 50.18782224595941, 62.78392671462857 
-156.85332015414494, 11.927244369976949, 21.686516479522833, -32.191598117317625, 50.63363273734876, 62.778918540442 
-157.73216160908132, 11.56923081591008, 21.68685635811024, -32.35504910145948, 51.08089230318283, 62.77391059162779 
-158.61109428981283, 11.214090091461395, 21.68718387041625, -32.51047643364079, 51.52953108373465, 62.76890500654141 
-159.49018497501785, 10.861905635826927, 21.687499123526287, -32.65763545922017, 51.97947769093754, 62.76390394774534 
-160.3694985099603, 10.512760466066952, 21.687802235970086, -32.79626919053169, 52.43065910349866, 62.75890960061171 
-161.24909779000302, 10.166737175342867, 21.68809333742402, -32.92610758367541, 52.88300055429612, 62.753924171887505 
-162.12904374408592, 9.823917929759332, 21.688372568400887, -33.04686677055788, 53.336425409459046, 62.74894988822373 
-163.0093953181901, 9.484384463806014, 21.688640079927517, -33.15824824338496, 53.79085503847726, 62.74398899466934 
-163.89020945881774, 9.148218074394313, 21.68889603321062, -33.25993798868113, 54.246208674631646, 62.73904375313189 
-164.77154109652074, 8.815499613486729, 21.689140599291456, -33.351605567790415, 54.702403264974265, 62.73411644080533 
-165.65344312951976, 8.486309479317754, 21.689373958689547, -33.4329031407045, 55.159353309022215, 62.72920934856754 
-166.5359664074585, 8.160727606207622, 21.689596301036133, -33.50346442997123, 55.61697068525683, 62.72432477934811 
-167.4191597153461, 7.838833452971576, 21.689807824697727, -33.5629036213663, 56.075164464443326, 62.71946504646822 
-168.3030697577435, 7.520705989929945, 21.690008736390347, -33.61081419797072, 56.533840708702634, 62.71463247195437 
-169.1877411432564, 7.206423684526134, 21.69019925078481, -33.646767704295954, 56.99290225517825, 62.70982938482718 
-170.07321636940193, 6.8960644855619435, 21.690379590103788, -33.67031243714928, 57.452248483045146, 62.70505811936725 
-170.95953580792022, 6.589705806062015, 21.690549983711005, -33.68097206004766, 57.911775062506315, 62.70032101335951 
-171.84673769060728, 6.2874245047818205, 21.69071066769314, -33.67824413818722, 58.37137368431374, 62.69562040631782 
-172.7348580957498, 5.989296866375857, 21.690861884435076, -33.66159859127773, 58.83093176823679, 62.69095863769179 
-173.6239309352455, 5.695398580245518, 21.691003882188983, -33.630476061982854, 59.29033214878074, 62.686338045057305 
-174.51398794249752, 5.405804718089093, 21.691136914637752, -33.584286198298166, 59.74945273633244, 62.681760962292884 
-175.40505866117323, 5.120589710178663, 21.69126124045348, -33.52240584898718, 60.20816615178222, 62.67722971774354 
-176.29717043492263, 4.839827320392231, 21.691377122851463, -33.44417717222386, 60.66633933253869, 62.67274663237389 
-177.19034839815203, 4.563590620031865, 21.69148482914033, -33.34890565891348, 61.123833107721794, 62.66831401791315 
-178.08461546795272, 4.2919519604621295, 21.691584630268977, -33.2358580738426, 61.58050174019082, 62.663934174992875 
-178.9799923372851, 4.024982944605977, 21.69167680037074, -33.10426031992001, 62.03619243294132, 62.659609391280505 
-179.87649746952093, 3.762754397338705, 21.69176161630553, -32.95329523340112, 62.49074479729427, 62.65534193960976 
179.2258529055538, 3.5053363348236366, 21.69183935720049, -32.78210032124229, 62.94399028020897, 62.65113407611088 
178.3270447941703, 3.252797932836539, 21.691910303989786, -32.58976545572964, 63.39575154798473, 62.64698803834181 
177.42706643934042, 3.0052074941292806, 21.691974738954073, -32.375330546411284, 63.84584182358876, 62.64290604342302 
176.52590831984716, 2.762632414886222, 21.692032945260372, -32.13778321529147, 64.29406417487021, 62.63889028617788 
175.62356314736064, 2.525139150330507, 21.692085206502806, -31.87605650840909, 64.74021075101007, 62.63494293728041 
174.72002586157825, 2.2927931795404457, 21.692131806244877, -31.589026685524097, 65.18406196473607, 62.631066141412894 
173.81529362329005, 2.0656589695396383, 21.692173027563967, -31.27551113991173, 65.62538561812356, 62.62726201543519 
172.90936580527233, 1.8437999387275232, 21.692209152598405, -30.934266512461633, 66.06393597024184, 62.62353264656782 
172.00224398091706, 1.6272784197203658, 21.692240462098038, -30.56398707867267, 66.49945274552589, 62.61988009059127 
171.09393191050657, 1.4161556216756, 21.69226723497856, -30.16330350399535, 66.93166008260197, 62.61630637006293 
170.18443552504849, 1.2104915921754242, 21.69228974788049, -29.730782082576464, 67.36026542442713, 62.61281347255463 
169.27376290759022, 1.0103451787483353, 21.692308274733065, -29.264924597044214, 67.78495835207687, 62.60940334891192 
168.3619242719379, 0.8157739901101055, 21.692323086323956, -28.764168962725197, 68.20540936640928, 62.60607791153801 
167.44893193871042, 0.6268343572079219, 21.692334449875027, -28.22689084868358, 68.62126862422609, 62.602839032703905 
166.53480030866564, 0.44358129415402275, 21.692342628625063, -27.651406500146535, 69.03216463853735, 62.59968854288675 
165.61954583324368, 0.2660684591369734, 21.6923478814196, -27.035977021903282, 69.43770295621323, 62.59662822913869 
164.70318698227823, 0.09434811540092178, 21.692350462308834, -26.37881441948392, 69.83746483077933, 62.59365983348803 
163.7857442088365, -0.07152890761548682, 21.692350620153775, -25.678089733206598, 70.2310059134831, 62.59078505137471 
162.86723991115608, -0.23151325288726846, 21.692348598241363, -24.93194363777637, 70.61785499211909, 62.588005530121926 
161.94769839165556, -0.3855570740641363, 21.69234463390902, -24.13849991447132, 70.99751281451881, 62.58532286744591 
161.02714581300657, -0.5336140732892743, 21.69233895817909, -23.29588223050528, 71.36945104211597, 62.58273861000567 
160.10561015126237, -0.6756395384802572, 21.692331795403682, -22.402234676157505, 71.733111388548, 62.58025425199443 
159.18312114605095, -0.8115903799765306, 21.6923233629204, -21.455746508586756, 72.08790500872159, 62.577871233774886 
158.25971024784775, -0.9414251664577057, 21.69231387071935, -20.454681524307325, 72.43321221488259, 62.57559094055907 
157.3354105623569, -1.0651041600378148, 21.692303521121914, -19.39741242107523, 72.76838260754917, 62.573414701135995 
156.41025679203733, -1.182589350441244, 21.69229250847179, -18.282460404218206, 73.0927357200261, 62.57134378664708 
155.4842851748236, -1.2938444881674886, 21.692281018838525, -17.108540131463467, 73.40556228468581, 62.569379409412235 
154.55753342010055, -1.398835116553378, 21.692269229734006, -15.874609863748757, 73.70612623604964, 62.567522721807116 
153.63004064200194, -1.4975286026434924, 21.6922573098425, -14.579926389062155, 73.99366756838992, 62.565774815193784 
152.70184729011459, -1.5898941667816977, 21.692245418764177, -13.224103908019343, 74.26740616228211, 62.56413671890563 
151.77299507767927, -1.6759029108396057, 21.69223370677285, -11.80717561667045, 74.52654668325467, 62.56260939928801 
150.84352690739078, -1.7555278450006726, 21.692222314588033, -10.329656207168785, 74.77028463437794, 62.56119375879587 
149.913486794909, -1.8287439130222574, 21.69221137316167, -8.792602957007919, 74.99781361149871, 62.559890635149834 
148.9829197902033, -1.8955280159015595, 21.692201003479873, -7.197672534827262, 75.20833376365144, 62.55870080055102 
148.05187189686114, -1.955859033875634, 21.692191316379834, -5.547170173917774, 75.40106140176195, 62.557624960956645 
147.12038998950143, -2.009717846690034, 21.69218241238225, -3.8440875262637877, 75.57523962738327, 62.55666375541659 
146.18852172944105, -2.0570873520753525, 21.692174381539402, -2.0921253909814768, 75.73014977301834, 62.55581775547222 
145.25631547877109, -2.09795248237601, 21.692167303299133, -0.2956976896685797, 75.86512336184863, 62.55508746461809 
144.3238202130061, -2.1323002192809675, 21.692161246384963, 1.5400864010521513, 75.97955421468943, 62.554473317827174 
143.3910854324763, -2.160119606611413, 21.692156268692315, 3.4094643244121, 76.07291026457087, 62.55397568114042 
142.4581610726392, -2.1814017611264287, 21.692152417201214, 5.306086898286208, 76.14474459394283, 62.55359485132128 
141.52509741349016, -2.1961398813134205, 21.692149727905445, 7.223109241820961, 76.19470519481698, 62.55333105557496 
140.59194498825778, -2.2043292541362955, 21.69214822575827, 9.153303433720854, 76.22254297457057, 62.553184451334 
139.65875449157187, -2.2059672597205586, 21.692147924634803, 11.089188760959305, 76.22811759222577, 62.55315512610918 
138.7255766872943, -2.2010533739608213, 21.69214882731112, 13.023173950016416, 76.21140080952344, 62.55324309740678 
137.79246231620556, -2.1895891690427316, 21.69215092546006, 14.947704730974852, 76.1724771706941, 62.55344831271207 
136.85946200373934, -2.1715783118776564, 21.69215419966377, 16.855409610541702, 76.11154197274998, 62.55377064953893 
135.9266261679582, -2.147026560454934, 21.692158619442974, 18.73923689006481, 76.0288966398618, 62.55420991554575 
134.9940049279613, -2.115941758123053, 21.69216414330296, 20.592576736229294, 75.92494175582266, 62.55476584871719 
134.06164801291416, -2.078333825817343, 21.692170718796103, 22.40936338793853, 75.80016812436769, 62.555438117611956 
133.12960467188688, -2.034214752258173, 21.69217828260099, 24.184154192202204, 75.65514630851902, 62.55622632167578 
132.19792358468365, -1.983598582149743, 21.69218676061797, 25.912183903270424, 75.49051514233986, 62.557129991619625 
131.2666527738421, -1.9265014024156282, 21.692196068080968, 27.58939435600438, 75.30696971175323, 62.55814858986213 
130.33583951797496, -1.8629413265131047, 21.692206109685504, 29.212441074424646, 75.1052492700584, 62.559281511036495 
129.40553026662144, -1.792938476873804, 21.69221677973265, 30.77867949104127, 74.88612549619725, 62.560528082560076 
128.4757705567683, -1.7165149655238736, 21.69222796228884, 32.28613418319446, 74.65039142894292, 62.56188756526698 
127.54660493119246, -1.633694872941763, 21.692239531361206, 33.73345488484799, 74.3988513272912, 62.563359154101924 
126.61807685877076, -1.5445042252167442, 21.692251351088288, 35.119863053005496, 74.13231162458504, 62.56494197887529 
125.69022865689185, -1.4489709695759612, 21.692263275945837, 36.445092529048296, 73.85157306759808, 62.56663510507777 
124.7631014160969, -1.3471249483518266, 21.692275150967465, 37.709327417923454, 73.55742406613933, 62.568437534753606 
123.83673492706693, -1.23899787146582, 21.69228681197979, 38.91313979002156, 73.25063522588842, 62.57034820743163 
122.9111676100631, -1.1246232875081172, 21.692298085851824, 40.057429257948115, 72.93195499761437, 62.57236600111266 
121.98643644691724, -1.0040365534959146, 21.69230879075821, 41.14336594373512, 72.6021063489085, 62.574489733311935 
121.06257691565924, -0.8772748033960941, 21.692318736456123, 42.17233786558268, 72.26178434851533, 62.57671816215514 
120.1396229278564, -0.744376915500401, 21.692327724575144, 43.14590335650331, 71.911654546316, 62.57904998752715 
119.21760676873026, -0.6053834787435979, 21.692335548920134, 44.06574878798823, 71.55235203195983, 62.581483852271354 
118.29655904010504, -0.46033675805666996, 21.692341995786343, 44.93365160913901, 71.18448106011765, 62.58401834343829 
117.37650860623019, -0.3092806588487047, 21.692346844286572, 45.75144851914093, 70.80861513866137, 62.586651993582194 
116.4574825425108, -0.15226069071209067, 21.692349866689877, 46.52100845895667, 70.42529748637325, 62.58938328210356 
115.53950608716698, 0.010676069553629661, 21.69235082877132, 47.244210025976734, 70.0350417779743, 62.59221063663605 
114.62260259583397, 0.17948101550359497, 21.692349490172383, 47.922922872488286, 69.63833310554611, 62.5951324344761 
113.7067934991045, 0.35410404909945187, 21.692345604771567, 48.55899263556013, 69.235629096253, 62.59814700405348 
112.79209826300483, 0.5344936191557704, 21.69233892106458, 49.15422895396032, 68.82736113630392, 62.60125262644069 
111.87853435238657, 0.7205967600863945, 21.692329182553806, 49.710396150177964, 68.4139356601308, 62.60444753689977 
110.96611719720673, 0.9123591308569522, 21.692316128146306, 50.229206187087705, 67.99573547172199, 62.60772992646412 
110.05486016166067, 1.1097250540509387, 21.692299492560018, 50.71231354514614, 67.57312107193175, 62.61109794355383 
109.14477451612316, 1.3126375549584406, 21.692279006737575, 51.16131170421357, 67.14643197144217, 62.614549695622344 
108.23586941184618, 1.5210384005981334, 21.692254398267103, 51.57773095201989, 66.71598797396352, 62.61808325083227 
107.32815185835342, 1.734868138585389, 21.69222539180956, 51.96303727752432, 66.28209041832076, 62.62169663975883 
106.42162670346622, 1.954066135761335, 21.692191709532, 52.31863214107447, 65.84502337139305, 62.62538785711846 
105.51629661588782, 2.1785706165003114, 21.69215307154622, 52.645852943879895, 65.40505476654945, 62.62915486352057 
104.61216207026892, 2.4083187006155273, 21.692109196352188, 52.945974046689564, 64.96243748435734, 62.632995587240615 
103.70922133467029, 2.6432464407857705, 21.69205980128562, 53.22020821171262, 64.51741037401298, 62.63690792601223 
102.80747046033592, 2.8832888594285295, 21.692004602969288, 53.469708362887864, 64.07019921523987, 62.64088974883636 
101.90690327368449, 3.128379984948188, 21.691943317767297, 53.69556957780677, 63.62101762138137, 62.64493889780521 
101.00751137042423, 3.3784528872909636, 21.691875662241742, 53.89883124018727, 63.17006788514403, 62.64905318993913 
100.10928411169343, 3.6334397127412816, 21.69180135361131, 54.080479295056946, 62.7175417689717, 62.65323041903418 
99.2122086221266, 3.89327171789778, 21.691720110211037, 54.24144856000824, 62.26362124239099, 62.65746835751826 
98.31626978974428, 4.157879302770185, 21.691631651952708, 54.382625055296565, 61.808479168901776, 62.661764758313915 
97.4214502675633, 4.427192042941824, 21.691535700785302, 54.504848323407515, 61.35227994511692, 62.666117356705385 
96.52773047682429, 4.701138720745575, 21.69143198115487, 54.60891371524102, 60.895180094910565, 62.67052387220837 
95.6350886117318, 4.979647355404826, 21.69132022046317, 54.69557462544619, 60.43732882132844, 62.67498201043979 
94.74350064560426, 5.262645232093733, 21.691200149524622, 54.76554466386267, 59.97886851896669, 62.67948946498621 
93.85294033833003, 5.550058929874969, 21.691071503020805, 54.81949975363398, 59.519935249443726, 62.68404391926838 
92.96337924502888, 5.841814348475862, 21.690934019952028, 54.85808014948683, 59.06065918248903, 62.688643048399946 
92.07478672581813, 6.137836733867346, 21.69078744408531, 54.881892372029185, 58.60116500505416, 62.693284521039004 
91.187129956586, 6.438050702613143, 21.690631524398228, 54.89151105580466, 58.1415723007258, 62.69796600122957 
90.30037394067662, 6.742380264959607, 21.690466015518034, 54.887480710333605, 57.6819959015899, 62.702685150231716 
89.41448152139378, 7.050748846639792, 21.690290678155435, 54.87031739453965, 57.22254621456361, 62.70743962833854 
88.5294133952342, 7.363079309367943, 21.69010527953254, 54.84051030586265, 56.76332952408218, 62.71222709667757 
87.64512812576396, 7.679293970003767, 21.689909593804355, 54.798523286044166, 56.30444827289955, 62.71704521899534 
86.76158215805609, 7.999314618368088, 21.68970340247324, 54.74479624607767, 55.84600132263982, 62.72189166342302 
85.87872983361049, 8.323062533694635, 21.689486494795922, 54.679746513180355, 55.38808419561854, 62.72676410422176 
84.99652340568318, 8.650458499704655, 21.689258668182354, 54.60377010288996, 54.930789299342, 62.73166022350525 
84.11491305495431, 8.981422818293984, 21.689019728585983, 54.51724291954542, 54.47420613498747, 62.73657771293896 
83.23384690547148, 9.315875321824114, 21.68876949088499, 54.42052188849161, 54.018421491068416, 62.74151427541339 
82.35327104080812, 9.653735384011144, 21.688507779253808, 54.3139460233713, 53.563519623397, 62.74646762669036 
81.47312952038287, 9.99492192940879, 21.688234427524584, 54.19783743184588, 53.109582422369265, 62.75143549702068 
80.59336439589127, 10.339353441483162, 21.687949279538074, 54.07250226303042, 52.65668956851937, 62.756415632731645 
79.71391572780601, 10.686947969279606, 21.687652189483405, 53.93823159984576, 52.204918677213854, 62.76140579778284 
78.8347216019091, 11.037623132682926, 21.687343022226457, 53.795302299388965, 51.75434543328942, 62.766403775289184 
77.95571814582355, 11.391296126274916, 21.687021653626164, 53.643977784309016, 51.30504371637294, 62.77140736900946 
77.07683954552043, 11.747883721793881, 21.686687970838552, 53.48450878804952, 50.857085717564615, 62.77641440479945 
76.19801806178096, 12.107302269203288, 21.686341872607933, 53.31713405669164, 50.410542048110536, 62.78142273202783 
75.31918404660249, 12.469467696377407, 21.68598326954495, 53.14208100999788, 49.96548184064146, 62.786430224954444 
74.44026595954163, 12.834295507413861, 21.685612084391078, 52.95956636412451, 49.52197284350827, 62.791434784069104 
73.5611903839958, 13.201700779584058, 21.68522825226919, 52.769796718339336, 49.0800815087026, 62.796434337390195 
72.68188204343117, 13.571598158933872, 21.68483172091993, 52.57296910795255, 48.63987307381232, 62.80142684172194 
71.80226381757211, 13.943901854548514, 21.684422450923346, 52.36927152554298, 48.201411638425526, 62.80641028386926 
70.92225675857455, 14.318525631496252, 21.684000415905867, 52.158883412441135, 47.764760235364264, 62.81138268180955 
70.04178010721319, 14.69538280246777, 21.683565602731846, 51.94197612231385, 47.329980897098544, 62.81634208582012 
69.16075130912047, 15.074386218128202, 21.68311801167981, 51.718713358584296, 46.897134717664116, 62.821286579560834 
