# MEX_intpoint_lon [deg], MEX_intpoint_lat [deg], MEX_intpoint_angle [deg], TGO_intpoint_lon [deg], TGO_intpoint_lat [deg], TGO_intpoint_angle [deg] 
-138.88188674252478, 19.487446696304573, 21.47788571094318, -27.688185493099628, 44.46470733204797, 62.82575205756653 
-139.78223991366667, 19.100983839530983, 21.47845235623212, -28.01442953086469, 44.86145897358445, 62.82120952039787 
-140.68097163697385, 18.71556810361628, 21.47900795804676, -28.33641840686735, 45.26089032739591, 62.81663710212291 
-141.57817937469676, 18.331291955259733, 21.47955236045064, -28.6540645455065, 45.66295440666346, 62.812036235201646 
-142.47395914141174, 17.94824721016245, 21.480085420885782, -28.9672766735686, 46.0676039073847, 62.80740838921121 
-143.36840547784354, 17.566525053123872, 21.48060701018802, -29.27595959554141, 46.474791190755454, 62.80275507034194 
-144.26161142594654, 17.186216057277623, 21.481117012586232, -29.580013955505194, 46.884468263880535, 62.7980778208485 
-145.1536685051078, 16.807410202429246, 21.481615325685357, -29.87933598463226, 47.29658675871083, 62.7933782184568 
-146.04466668934506, 16.430196892459556, 21.48210186043345, -30.17381723324771, 47.71109790909484, 62.78865787572677 
-146.93469438538327, 16.054664971760452, 21.482576541072692, -30.463344286317696, 48.12795252582264, 62.7839184393712 
-147.82383841150008, 15.680902740671193, 21.483039305074634, -30.747798461139244, 48.547100969529765, 62.77916158953095 
-148.7121839770427, 15.308997969885402, 21.483490103059577, -31.02705548590331, 48.96849312131561, 62.7743890390074 
-149.59981466252452, 14.939037913800785, 21.48392889870042, -31.300985157693226, 49.39207835091823, 62.769602532451856 
-150.48681240022023, 14.571109322784974, 21.48435566861109, -31.569450978360035, 49.817805482272746, 62.76480384551306 
-151.3732574551851, 14.20529845433285, 21.48477040221963, -31.832309766585546, 50.24562275626405, 62.75999478394293 
-152.25922840663412, 13.841691083091803, 21.48517310162625, -32.089411244301694, 50.6754777904675, 62.755177182661356 
-153.14480212962158, 13.480372509733385, 21.485563781446515, -32.34059759547897, 51.10731753565075, 62.75035290478058 
-154.03005377697286, 13.12142756865071, 21.485942468639923, -32.5857029951284, 51.541088228789484, 62.74552384058976 
-154.91505676142498, 12.764940634462816, 21.486309202324083, -32.824553106176495, 51.976735342325064, 62.74069190650092 
-155.79988273794075, 12.410995627308301, 21.48666403357476, -33.05696454167219, 52.41420352936661, 62.735859043956175 
-156.6846015861692, 12.05967601691216, 21.48700702521214, -33.2827442895659, 52.85343656451057, 62.73102721829809 
-157.56928139303074, 11.71106482541098, 21.4873382515735, -33.501689097062474, 53.29437727991928, 62.726198417603364 
-158.4539884354129, 11.36524462892321, 21.487657798272757, -33.71358481129011, 53.73696749626413, 62.721374651480886 
-159.3387871629694, 11.022297557852475, 21.487965761947002, -33.91820567274465, 54.18114794810041, 62.71655794983527 
-160.22374018102158, 10.682305295913624, 21.488262249990594, -34.11531355766122, 54.626858203197074, 62.71175036159701 
-161.10890823356647, 10.345349077872513, 21.488547380277065, -34.30465716513056, 55.07403657529651, 62.70695395341974 
-161.99435018640443, 10.011509685992028, 21.488821280869196, -34.48597114441376, 55.522620029727214, 62.702170808346395 
-162.8801230104028, 9.680867445178793, 21.489084089717725, -34.65897515751504, 55.972544081231476, 62.69740302444502 
-163.76628176491909, 9.353502216826191, 21.48933595434899, -34.823372871644246, 56.42374268330661, 62.692652713415534 
-164.65287958141244, 9.029493391351522, 21.489577031542066, -34.97885087573794, 56.8761481082837, 62.68792199916852 
-165.53996764727862, 8.708919879426508, 21.48980748699573, -35.12507751470851, 57.32969081728868, 62.68321301637766 
-166.42759518994706, 8.391860101902653, 21.49002749498565, -35.261701634551045, 57.784299319139244, 62.67852790900681 
-167.31580946128625, 8.078391978434412, 21.490237238012423, -35.38835123086046, 58.2399000171328, 62.673868828813134 
-168.20465572236608, 7.768592914805665, 21.490436906440756, -35.504631992690186, 58.696417042568335, 62.669237933827894 
-169.09417722863265, 7.46253978896679, 21.49062669813038, -35.6101257330239, 59.15377207372274, 62.66463738681607 
-169.98441521555424, 7.1603089357917495, 21.490806818059124, -35.70438869643136, 59.61188413886469, 62.66006935371632 
-170.87540888480228, 6.861976130567241, 21.490977477938653, -35.78694973374074, 60.07066940173634, 62.65553600206296 
-171.76719539103416, 6.567616571228032, 21.491138895823457, -35.857308332789536, 60.5300409277639, 62.65103949939138 
-172.65980982934985, 6.277304859355111, 21.491291295713445, -35.91493249351852, 60.98990842906981, 62.646582011628276 
-173.55328522349703, 5.991114979955754, 21.49143490715085, -35.9592564348608, 61.45017798614984, 62.642165701468784 
-174.4476525149027, 5.709120280047527, 21.491569964811795, -35.98967812006388, 61.91075174384635, 62.63779272674157 
-175.34294055261253, 5.431393446070352, 21.491696708093283, -36.00555658628934, 62.371527578991824, 62.63346523876397 
-176.2391760842215, 5.158006480154137, 21.49181538069589, -36.00620906358692, 62.83239873681171, 62.62918538068853 
-177.13638374788218, 4.889030675271827, 21.491926230202854, -35.99090786767962, 63.29325343286133, 62.624955285843164 
-178.03458606547827, 4.624536589310761, 21.492029507656206, -35.95887705046815, 63.75397441692439, 62.62077707606579 
-178.9338034370532, 4.3645940180982175, 21.492125467130265, -35.90928879183641, 64.21443849492039, 62.6166528600361 
-179.8340541365848, 4.109271967419869, 21.492214365303262, -35.84125951629586, 64.67451600444964, 62.61258473160592 
179.26464569080323, 3.8586386240729458, 21.492296461027493, -35.753845718358114, 65.1340702391509, 62.60857476812944 
178.36228203010003, 3.6127613259987648, 21.492372014898745, -35.64603948141052, 65.59295681655342, 62.604625028795795 
177.45884299604552, 3.371706531542625, 21.49244128882539, -35.51676367647071, 66.05102298357428, 62.600737552965725 
176.55431883105544, 3.135539787891688, 21.4925045455978, -35.364866829742475, 66.50810685324761, 62.59691435851359 
175.64870190134423, 2.9043256987447927, 21.492562048458673, -35.189117651677506, 66.96403656567638, 62.59315744017715 
174.7419866911554, 2.678127891270984, 21.492614060674686, -34.98819922563189, 67.41862936558114, 62.589468767916784 
173.8341697950141, 2.4570089824165144, 21.492660845110255, -34.76070286165495, 67.87169058819481, 62.585850285285666 
172.9252499079158, 2.2410305446228533, 21.492702663803804, -34.50512163103188, 68.32301254463924, 62.5823039078132 
172.01522781337107, 2.030253071021289, 21.492739777547115, -34.21984361063584, 68.77237329734456, 62.57883152140345 
171.10410636922737, 1.8247359401721106, 21.492772445468404, -33.903144883805254, 69.2195353155766, 62.57543498074986 
170.19189049119416, 1.6245373804192056, 21.492800924619555, -33.55318236741852, 69.66424400077612, 62.57211610776897 
169.2785871340018, 1.4297144339332364, 21.492825469568096, -33.16798656439071, 70.10622607125666, 62.56887669005417 
168.36420527012973, 1.240322920519029, 21.49284633199453, -32.74545437851193, 70.54518779595747, 62.565718479351766 
167.44875586604422, 1.0564174012649044, 21.49286376029544, -32.2833421762144, 70.98081306753176, 62.56264319006085 
166.53225185589366, 0.8780511421137163, 21.492877999192917, -31.779259339604454, 71.41276130623675, 62.559652497759 
165.6147081126134, 0.7052760774371041, 21.49288928935088, -31.23066262930356, 71.84066518810205, 62.55674803775531 
164.6961414164011, 0.5381427736962838, 21.49289786699872, -30.634851766891813, 72.2641281939597, 62.553931403672614 
163.77657042053008, 0.37670039327383975, 21.49290396356286, -29.988966757692523, 72.68272198047346, 62.55120414606063 
162.8560156144754, 0.22099665856228526, 21.49290780530658, -29.28998760776848, 73.09598358073434, 62.548567771041526 
161.93449928433648, 0.07107781639595229, 21.492909612978668, -28.53473724625751, 73.5034124508116, 62.54602373898977 
161.01204547054743, -0.07301139708656107, 21.49290960147145, -27.71988864633146, 73.90446739047205, 62.5435734632476 
160.08867992287634, -0.21122779106177447, 21.4929079794884, -26.841977343831747, 74.2985633818023, 62.541218308878065 
159.16443005272205, -0.34352975403500524, 21.492904949222016, -25.897420777390398, 74.68506840943772, 62.53895959145673 
158.2393248827282, -0.4698772871609766, 21.492900706042267, -24.882546107890573, 75.06330035128072, 62.53679857590384 
157.31339499374147, -0.5902320367845566, 21.49289543819603, -23.793628401450068, 75.43252405964714, 62.53473647535819 
156.38667246915304, -0.7045573261157838, 21.49288932651797, -22.6269412517247, 75.7919487901489, 62.532774450094394 
155.45919083666948, -0.8128181859544795, 21.492882544153133, -21.378822034249886, 76.14072617926794, 62.5309136064845 
154.5309850075706, -0.9149813843812705, 21.49287525629175, -20.04575397207407, 76.47794902068965, 62.529154996005474 
153.60209121352062, -1.0110154553339226, 21.492867619916563, -18.62446697496908, 76.80265114303215, 62.527499614294086 
152.67254694100922, -1.10089072598968, 21.492859783562878, -17.112058704325964, 77.11380874393616, 62.52594840024941 
151.7423908635074, -1.1845793428773268, 21.492851887091906, -15.506136411546215, 77.41034358165547, 62.52450223518568 
150.81166277143353, -1.2620552966450524, 21.492844061477467, -13.804978699708284, 77.69112845675068, 62.52316194203467 
149.88040350003286, -1.3332944454138322, 21.492836428606445, -12.007714390452655, 77.95499542187095, 62.52192828460034 
148.9486548552834, -1.398274536649037, 21.49282910109331, -10.114513121330997, 78.20074712312301, 62.520801966865534 
148.01645953794818, -1.456975227487197, 21.492822182108778, -8.126779234689108, 78.42717158727626, 62.519783632352016 
147.08386106590325, -1.509378103458516, 21.49281576522302, -6.04733717617848, 78.63306061151214, 62.51887386353495 
146.15090369487683, -1.5554666955503809, 21.492809934263573, -3.8805934116709313, 78.81723167829087, 62.51807318131199 
145.2176323377424, -1.595226495561364, 21.492804763188012, -1.6326573967174483, 78.97855300897672, 62.517382044528006 
144.28409248251563, -1.628644969700299, 21.49280031597179, 0.688596869557608, 79.11597100303119, 62.516800849556255 
143.35033010920887, -1.6557115703898646, 21.49279664651119, 3.0735459572887227, 79.22853892029893, 62.516329929935914 
142.41639160570435, -1.67641774623936, 21.492793798541598, 5.510922045824163, 79.31544530589561, 62.5159695560672 
141.48232368280952, -1.6907569501567028, 21.492791805571226, 7.988014262022799, 79.37604039651643, 62.51571993496369 
140.5481732886629, -1.6987246455753044, 21.492790690830336, 10.490963404189133, 79.40985864977722, 62.515581210063075 
139.61398752266112, -1.7003183107769166, 21.492790467236045, 13.005136653599868, 79.41663565397803, 62.51555346109552 
138.67981354908048, -1.6955374412975062, 21.492791137372752, 15.515558919480602, 79.39631802049024, 62.51563670401064 
137.74569851056702, -1.6843835504087699, 21.492792693488237, 18.00736993189876, 79.34906540665014, 62.51583089096309 
136.81168944167067, -1.6668601676739212, 21.492795117505388, 20.46627265020815, 79.27524449184837, 62.51613591035615 
135.87783318259756, -1.6429728355820172, 21.492798381049578, 22.87893975929456, 79.17541543177478, 62.516551586944175 
134.9441762933552, -1.6127291042711405, 21.492802445491705, 25.23335071929411, 79.05031193732412, 62.51707768199293 
134.0107649684618, -1.5761385243562438, 21.492807262006668, 27.519040806329347, 78.90081657632938, 62.517713893498154 
133.07764495238965, -1.5332126378833446, 21.492812771647444, 29.72725404008559, 78.72793312720349, 62.51845985646192 
132.14486145590882, -1.4839649674372974, 21.49281890543442, 31.851001967783343, 78.53275781840411, 62.519315143226365 
131.2124590734931, -1.428411003435715, 21.49282558446008, 33.8850384675268, 78.31645110103862, 62.520279263864225 
130.280481701946, -1.3665681896470068, 21.492832720008725, 35.825766194148905, 78.08021128395407, 62.52135166662632 
129.34897246039864, -1.2984559069756736, 21.492840213691224, 37.67109284651269, 77.82525097930592, 62.5225317384443 
128.41797361182594, -1.2240954555626804, 21.492847957594474, 39.42025545580897, 77.55277692290352, 62.52381880548928 
127.48752648622005, -1.1435100352536878, 21.49285583444549, 41.073629059230406, 77.26397339252404, 62.5252121337845 
126.55767140555385, -1.0567247244922044, 21.492863717789845, 42.63253319571025, 76.95998917479479, 62.526710929872166 
125.6284476106593, -0.9637664576989353, 21.492871472184223, 44.09904632049329, 76.64192783593376, 62.52831434153283 
124.69989319013636, -0.8646640012025505, 21.492878953402847, 45.47583499226359, 76.31084092971292, 62.53002145855699 
123.77204501140186, -0.759447927790718, 21.492886008657543, 46.76600185780231, 75.9677237159908, 62.53183131356766 
122.84493865397647, -0.6481505899534719, 21.492892476831024, 47.97295419409114, 75.61351295044581, 62.533742882892795 
121.91860834510068, -0.530806091894175, 21.492898188723256, 49.100293091707776, 75.24908632615397, 62.53575508748674 
120.99308689776048, -0.4074502603858113, 21.49290296731049, 50.15172222382496, 74.87526318772048, 62.537866793899234 
120.06840565119411, -0.27812061455287407, 21.492906628016524, 51.130974450815934, 74.49280618882285, 62.540076815290945 
119.14459441394142, -0.1428563346610442, 21.492908978996073, 52.0417541590064, 74.10242361706011, 62.54238391249424 
118.22168140948871, -0.0016982299986661533, 21.492909821429624, 52.88769312713382, 73.70477216118728, 62.54478679511788 
117.29969322455051, 0.14531129406474405, 21.492908949829598, 53.672317773835736, 73.30045994236055, 62.54728412269398 
116.37865476002226, 0.29812826975653617, 21.492906152357172, 54.39902579967751, 72.89004967157051, 62.54987450586637 
115.45858918462648, 0.45670720122836767, 21.492901211149633, 55.071070450317855, 72.47406182962256, 62.55255650761849 
114.53951789126705, 0.6210010994456742, 21.49289390265758, 55.6915508602792, 72.05297779406764, 62.5553286445392 
113.62146045609605, 0.7909615175514036, 21.492883997991715, 56.263407167802555, 71.6272428599686, 62.55818938812529 
112.70443460028974, 0.9665385866166462, 21.492871263278555, 56.78941930737587, 71.19726911903646, 62.561137166119195 
111.788456154521, 1.1476810516912541, 21.492855460024906, 57.27220858082404, 70.76343817525242, 62.564170363879576 
110.87353902610695, 1.3343363080682242, 21.492836345490222, 57.71424127756142, 70.32610368533265, 62.56728732578405 
109.95969516880399, 1.5264504376766135, 21.49281367306678, 58.11783375961522, 69.88559371994823, 62.57048635666162 
109.04693455521296, 1.7239682455192318, 21.492787192666817, 58.48515854877974, 69.44221294704512, 62.57376572325366 
108.13526515175207, 1.926833296072517, 21.492756651116306, 58.81825105402826, 68.99624464239183, 62.57712365570128 
107.22469289614686, 2.1349879495680706, 21.49272179255488, 59.119016659708365, 68.54795253500156, 62.58055834905755 
106.31522167738147, 2.3483733980769186, 21.492682358841176, 59.389237961711466, 68.09758249664328, 62.58406796482294 
105.40685331804896, 2.566929701319953, 21.492638089963332, 59.630581992235214, 67.64536408551756, 62.58765063250168 
104.49958755903403, 2.7905958221300153, 21.49258872445386, 59.844607316192075, 67.19151195452054, 62.59130445117782 
103.59342204645544, 3.0193096614937236, 21.492533999808586, 60.03277091573083, 66.73622713450203, 62.595027491108866 
102.68835232079303, 3.253008093103498, 21.492473652908796, 60.19643480541417, 66.27969820265453, 62.59881779533513 
101.78437180811856, 3.491626997353043, 21.492407420446384, 60.33687234075758, 65.82210234573223, 62.60267338130307 
100.881471813348, 3.7351012947122744, 21.492335039351197, 60.45527419825952, 65.36360632725888, 62.606592242500895 
99.9796415154291, 3.9833649784203953, 21.49225624722006, 60.55275401671455, 64.90436736728535, 62.610572350104285 
99.07886796437651, 4.236351146438986, 21.492170782747063, 60.630353698286825, 64.44453394263483, 62.61461165463063 
98.17913608006481, 4.493992032609632, 21.492078386154276, 60.68904837417341, 63.98424651495119, 62.618708087600034 
97.28042865268809, 4.7562190369639215, 21.491978799622654, 60.72975104422033, 63.523638193258634, 62.62285956320095 
96.3827263447953, 5.0229627551363185, 21.49187176772229, 60.75331690297621, 63.06283533715994, 62.627063979958805 
95.48600769480831, 5.294153006833838, 21.49175703784156, 60.7605473667108, 62.60195810625181, 62.63131922240616 
94.59024912193208, 5.569718863319004, 21.491634360614658, 60.75219381714355, 62.14112096082498, 62.63562316275167 
93.69542493236459, 5.849588673866134, 21.49150349034686, 60.728961078225794, 61.680433118441755, 62.63997366254732 
92.80150732671716, 6.133690091153356, 21.49136418543699, 60.6915106424586, 61.21999897054896, 62.64436857435094 
91.90846640855587, 6.421950095556232, 21.49121620879658, 60.640463663030864, 60.7599184628838, 62.64880574338341 
91.01627019397709, 6.714295018311501, 21.49105932826507, 60.576403727625646, 60.30028744306798, 62.65328300917781 
90.12488462213246, 7.010650563522231, 21.490893317020692, 60.499879429141885, 59.84119797845399, 62.65779820721955 
89.23427356662027, 7.310941828978724, 21.490717953986177, 60.411406747868014, 59.38273864698822, 62.66234917057551 
88.3443988476645, 7.6150933257718965, 21.49053302422919, 60.31147125887109, 58.92499480358547, 62.66693373151058 
87.45522024500383, 7.923028996678849, 21.49033831935648, 60.20053017755662, 58.46804882426396, 62.67154972308987 
86.56669551141873, 8.234672233302495, 21.490133637901696, 60.07901425554062, 58.01198033007053, 62.676194980765416 
85.67878038682602, 8.549945891950106, 21.48991878570599, 59.94732953816696, 57.556866392626546, 62.68086734394534 
84.79142861287633, 8.868772308237508, 21.48969357629107, 59.80585899421974, 57.10278172294651, 62.685564657544106 
83.90459194799243, 9.191073310408445, 21.489457831224254, 59.65496402762406, 56.649798845020705, 62.69028477351269 
83.01822018279198, 9.516770231360491, 21.48921138047487, 59.49498588020929, 56.19798825550838, 62.69502555234672 
82.13226115584231, 9.845783919371309, 21.488954062761753, 59.326246933928346, 55.74741857075791, 62.699784864571406 
81.24666076969959, 10.178034747521055, 21.48868572589118, 59.14905192028562, 55.29815666225367, 62.704560592202256 
80.36136300719039, 10.51344262180849, 21.48840622708493, 58.96368904412791, 54.850267781483666, 62.70935063017934 
79.47630994789813, 10.851926987960825, 21.488115433297843, 58.770431028393304, 54.40381567512786, 62.71415288777478 
78.59144178482306, 11.193406836938324, 21.487813221524828, 58.56953608589451, 53.95886269138149, 62.7189652899716 
77.70669684118914, 11.537800709137427, 21.487499479096424, 58.36124882373156, 53.51546987815134, 62.723785778812996 
76.82201158737813, 11.885026697296922, 21.487174103962893, 58.14580108548411, 53.07369707379384, 62.728612314720564 
75.93732065797548, 12.235002448114106, 21.486837004966254, 57.92341273592258, 52.633602991001354, 62.73344287778091 
75.05255686892076, 12.587645162578825, 21.48648810210006, 57.69429239259903, 52.1952452943875, 62.73827546899878 
74.16765123475965, 12.94287159503529, 21.486127326756307, 57.45863810832919, 51.75868067227148, 62.74310811151652 
73.28253298600188, 13.300598050982801, 21.48575462195946, 57.21663800825738, 51.323964903115424, 62.747938851798274 
72.3971295865966, 13.66074038362791, 21.485369942586967, 56.96847088489986, 50.89115291702847, 62.75276576077806 
71.51136675154176, 14.023213989202329, 21.484973255576154, 56.71430675429252, 50.460298852713116, 62.75758693497108 
70.62516846465292, 14.38793380106176, 21.484564540117166, 56.45430737611904, 50.03145611019645, 62.762400497547276 
69.73845699652223, 14.754814282582762, 21.484143787831577, 56.18862674046769, 49.604677399657895, 62.76720459936613 
68.85115292270704, 15.123769418875728, 21.483711002936595, 55.91741152365557, 49.180014786638026, 62.77199741997228 
