# MEX_intpoint_lon [deg], MEX_intpoint_lat [deg], MEX_intpoint_angle [deg], TGO_intpoint_lon [deg], TGO_intpoint_lat [deg], TGO_intpoint_angle [deg] 
-139.12791776372163, 19.546896753588353, 21.643967862968523, -27.55955858232875, 42.47567594221476, 62.867963998564804 
-140.02287646958763, 19.151419237997235, 21.644554004331628, -27.85239363383992, 42.880668365872154, 62.86333036593495 
-140.91621041861998, 18.757038128313688, 21.645128495510676, -28.14042031622812, 43.28826277193987, 62.85866320775009 
-141.80802081397667, 18.363846801888617, 21.645691175552155, -28.423539935642296, 43.698406673021225, 62.853963988904425 
-142.69840729870157, 17.9719379788303, 21.64624189761699, -28.701649782780127, 44.11104713628061, 62.84923421580951 
-143.58746793274804, 17.581403744306662, 21.64678052899575, -28.974642901356177, 44.5261307581646, 62.84447543587374 
-144.47529917114292, 17.192335569885916, 21.647306951106728, -29.242407843752076, 44.943603637017944, 62.839689236932486 
-145.36199584314787, 16.80482433387987, 21.64782105947706, -29.504828413002254, 45.363411343469494, 62.83487724662847 
-146.24765113228685, 16.418960340655545, 21.648322763706897, -29.76178339020861, 45.785498888452814, 62.8300411317432 
-147.13235655711728, 16.03483333888349, 21.648811987416764, -30.013146246411548, 46.209810688715145, 62.82518259747954 
-148.01620195263317, 15.652532538692316, 21.649288668178162, -30.258784837875695, 46.63629052965557, 62.82030338669554 
-148.89927545219842, 15.27214662770135, 21.64975275742752, -30.49856108367326, 47.064881525320345, 62.81540527909062 
-149.78166346991648, 14.893763785904527, 21.65020422036384, -30.732330624368576, 47.49552607536812, 62.81049009034375 
-150.66345068335394, 14.517471699380254, 21.650643035829813, -30.959942460521507, 47.928165818802334, 62.805559671204776 
-151.54472001654182, 14.143357572803692, 21.651069196177072, -31.181238569636196, 48.36274158425023, 62.80061590653939 
-152.42555262318928, 13.771508140738886, 21.651482707115406, -31.39605350008462, 48.79919333654923, 62.795660714327916 
-153.30602787005128, 13.402009677690085, 21.651883587546312, -31.604213940429823, 49.23746011938034, 62.79069604461915 
-154.18622332040067, 13.034948006892254, 21.652271869381153, -31.805538262464243, 49.67747999366601, 62.78572387843981 
-155.0662147175626, 12.670408507822836, 21.652647597344156, -31.999836036160314, 50.11918997142501, 62.780746226660234 
-155.9460759684777, 12.308476122417323, 21.653010828760443, -32.18690751460702, 50.56252594474969, 62.77576512881738 
-156.82587912726692, 11.949235359973283, 21.65336163332961, -32.36654308687395, 51.00742260954223, 62.77078265189585 
-157.70569437877936, 11.592770300728002, 21.65370009288489, -32.53852269660633, 51.45381338361384, 62.76580088906797 
-158.5855900221103, 11.239164598096995, 21.654026301138455, -32.70261522400829, 51.901630318715846, 62.76082195839415 
-159.46563245408566, 10.888501479561256, 21.654340363413112, -32.85857782871997, 52.35080400603395, 62.75584800148398 
-160.3458861527135, 10.540863746193102, 21.654642396360796, -33.00615525093468, 52.80126347463463, 62.750881182119755 
-161.2264136606116, 10.196333770811648, 21.65493252766814, -33.14507906793829, 53.252936082307365, 62.7459236848435 
-162.10727556842647, 9.854993494760235, 21.655210895749697, -33.275066903084586, 53.705747398196905, 62.740977713508165 
-162.98853049826425, 9.51692442330021, 21.65547764942908, -33.395821584048086, 54.15962107656546, 62.73604548979508 
-163.87023508716186, 9.182207619616541, 21.655732947608506, -33.5070302470226, 54.61447872096587, 62.73112925169803 
-164.75244397063133, 8.850923697432913, 21.655976958927138, -33.60836338336286, 55.07023973804257, 62.72623125197634 
-165.63520976631708, 8.523152812235242, 21.656209861408826, -33.699473824999295, 55.52682118010742, 62.721353756577294 
-166.51858305781076, 8.198974651104981, 21.656431842099437, -33.779995664798214, 55.98413757556138, 62.71649904303026 
-167.40261237867432, 7.878468421165008, 21.6566430966946, -33.84954310789652, 56.442100746150764, 62.71166939881338 
-168.2873441967272, 7.5617128366433395, 21.65684382915808, -33.907709249917815, 56.90061960995757, 62.70686711969451 
-169.17282289865798, 7.248786104561861, 21.65703425133139, -33.95406477788504, 57.359599968926354, 62.70209450804817 
-170.0590907750267, 6.9397659090595285, 21.657214582535197, -33.98815658959271, 57.81894427962651, 62.69735387115002 
-170.9461880057278, 6.634729394361841, 21.657385049163004, -34.009506327204804, 58.278551405836026, 62.692647519450304 
-171.8341526459884, 6.333753146411, 21.657545884267556, -34.01760882091631, 58.73831635141236, 62.687977764828226 
-172.72302061298078, 6.0369131731734536, 21.657697327140735, -34.0119304386801, 59.1981299717874, 62.683346918828896 
-173.61282567313168, 5.744284883644152, 21.657839622887263, -33.99190733827871, 59.65787866228709, 62.67875729088469 
-174.5035994302147, 5.455943065570035, 21.657973021992884, -33.956943618443546, 60.117444021329696, 62.67421118652238 
-175.39537131431518, 5.17196186191735, 21.658097779887612, -33.9064093663305, 60.57670248640696, 62.669710905558645 
-176.28816857175977, 4.892414746110978, 21.658214156504563, -33.83963859949195, 61.035524940591536, 62.6652587402852 
-177.18201625610595, 4.617374496076566, 21.65832241583497, -33.75592710159814, 61.493776287153, 62.66085697364567 
-178.07693722028833, 4.346913167119299, 21.65842282547995, -33.65453015261875, 61.95131498969807, 62.65650787740591 
-178.97295211002108, 4.081102063676489, 21.658515656199643, -33.53466015605682, 62.40799257508717, 62.65221371032022 
-179.8700793585561, 3.8200117099841546, 21.658601181460313, -33.39548416822549, 62.86365309621923, 62.647976716294764 
179.2316648171012, 3.563711819700981, 21.658679676979943, -33.23612133758439, 63.3181325516293, 62.643799122550725 
178.3322664184167, 3.312271264536341, 21.65875142027295, -33.0556402659384, 63.77125825871347, 62.63968313778877 
177.43171366589166, 3.0657580419324195, 21.65881669019471, -32.85305630800324, 64.22284817729467, 62.63563095035724 
176.52999699786403, 2.8242392418534465, 21.658875766486332, -32.6273288316402, 64.67271018018312, 62.631644726425684 
175.6271090674471, 2.58778101273878, 21.658928929320382, -32.37735846816981, 65.1206412673831, 62.627726608166135 
174.7230447375061, 2.3564485266793396, 21.658976458848098, -32.10198439083197, 65.56642672067315, 62.623878711944 
173.8178010735763, 2.1303059438804754, 21.65901863474879, -31.799981669948586, 66.00983919546556, 62.62010312652049 
172.9113773346275, 1.9094163764772534, 21.65905573578181, -31.470058765970116, 66.45063774716604, 62.61640191126902 
172.00377496158404, 1.6938418517714355, 21.65908803934195, -31.11085523669795, 66.88856678974204, 62.61277709440713 
171.0949975635127, 1.4836432749622341, 21.659115821018638, -30.720939752933226, 67.32335498491949, 62.60923067124656 
170.18505090139462, 1.278880391445869, 21.659139354159578, -30.298808537997484, 67.75471406141786, 62.6057646024628 
169.27394286940282, 1.0796117487618122, 21.65915890943947, -29.842884371379345, 68.18233756497324, 62.60238081238697 
168.36168347361212, 0.8858946582660417, 21.659174754434215, -29.351516325533865, 68.60589954166846, 62.59908118732135 
167.44828480807323, 0.6977851566142067, 21.659187153201433, -28.822980437870154, 69.02505315938654, 62.59586757388091 
166.53376102819092, 0.515337967139813, 21.65919636586752, -28.255481557344613, 69.4394292751334, 62.59274177736277 
165.61812832135115, 0.3386064612145159, 21.659202648222042, -27.647156646750787, 69.848634959665, 62.58970556014557 
164.70140487475106, 0.16764261967963823, 21.659206251319887, -26.99607986734036, 70.25225199543127, 62.58676064012065 
163.78361084039292, 0.002496994439405066, 21.659207421091743, -26.30026982092288, 70.64983536945594, 62.58390868915684 
162.8647682972113, -0.15678132969211622, 21.659206397963295, -25.55769937449764, 71.04091178954378, 62.58115133160114 
161.94490121031248, -0.31014477279748015, 21.659203416483898, -24.766308541291718, 71.42497826026552, 62.57849014281643 
161.0240353873126, -0.4575472972218781, 21.65919870496493, -23.924020936164062, 71.8015007646068, 62.575926647759054 
160.10219843177345, -0.5989444444045781, 21.65919248512846, -23.028764357572975, 72.16991310800718, 62.573462319596686 
159.17941969374039, -0.7342933710813918, 21.65918497176672, -22.07849606582181, 72.52961599369482, 62.571098578369735 
158.25573021740246, -0.8635528847640541, 21.65917637241267, -21.071233319227684, 72.87997641153486, 62.56883678969658 
157.33116268589913, -0.9866834784028587, 21.659166887022323, -20.0050896852085, 73.22032743665467, 62.56667826352521 
156.405751363314, -1.1036473641397646, 21.659156707669005, -18.878317549064654, 73.54996854822888, 62.56462425293239 
155.47953203390242, -1.2144085060605363, 21.65914601825016, -17.68935708493228, 73.86816659201936, 62.56267595297229 
154.55254193861273, -1.3189326518559272, 21.65913499420693, -16.436891716028992, 74.17415752120577, 62.560834499575186 
153.624819708971, -1.4171873633039747, 21.65912380225705, -15.119909761233128, 74.46714905692232, 62.55910096849884 
152.696405298409, -1.5091420454877682, 21.65911260014115, -13.737771532551244, 74.74632441053055, 62.557476374333 
151.76733991112653, -1.594767974665688, 21.659101536383158, -12.290280611065638, 75.01084720144821, 62.55596166955853 
150.8376659285887, -1.6740383247143096, 21.659090750064774, -10.777757397473115, 75.25986768458525, 62.55455774366265 
149.907426833769, -1.7469281920672617, 21.65908037061451, -9.201112334096338, 75.49253036748696, 62.55326542231118 
148.97666713325825, -1.8134146190774103, 21.65907051761161, -7.561915476083744, 75.70798304707863, 62.552085466578724 
148.04543227736937, -1.8734766157335077, 21.659061300604893, -5.862458421645667, 75.905387228489, 62.551018572238384 
147.11376857837593, -1.9270951796669717, 21.659052818947, -4.105804088072512, 76.08392980460489, 62.55006536911111 
146.18172312703055, -1.9742533143891134, 21.659045161644134, -2.295819551158061, 76.24283577796362, 62.54922642047632 
145.2493437075182, -2.0149360457039576, 21.659038407221512, -0.4371872624800753, 76.38138170233152, 62.548502222543966 
144.31667871100439, -2.0491304362472444, 21.659032623604705, 1.464609482945013, 76.4989094187521, 62.54789320398917 
143.38377704794635, -2.0768255981073938, 21.659027868017102, 3.403329882001493, 76.59483957127864, 62.54739972554985 
142.4506880593402, -2.0980127034900287, 21.65902418689347, 5.372049234337503, 76.66868432359134, 62.54702207968754 
141.5174614270815, -2.112684993393461, 21.659021615809884, 7.363262304307817, 76.72005867124223, 62.54676049031288 
140.58414708362199, -2.1208377842685304, 21.65902017943005, 9.369013671915987, 76.7486897646362, 62.546615112574564 
139.6507951211067, -2.1224684726422924, 21.65901989146811, 11.381050077764252, 76.7544237293902, 62.54658603271379 
138.71745570018015, -2.1175765376913933, 21.65902075466791, 13.390987819793834, 76.73722959124063, 62.546673267982804 
137.78417895864965, -2.1061635417571214, 21.659022760798923, 15.390486866039115, 76.69720007298588, 62.54687676662883 
136.85101492019655, -2.08823312880062, 21.65902589066859, 17.371422710613448, 76.63454921568487, 62.547196407942714 
135.91801340332427, -2.0637910208029444, 21.65903011415134, 19.326047215221966, 76.54960696616143, 62.547632002372495 
134.98522393073188, -2.0328450121211445, 21.659035390234017, 21.247130713213103, 76.44281104762332, 62.54818329170169 
134.05269563929983, -1.9954049618176488, 21.65904166707776, 23.128079354175487, 76.31469657220023, 62.548849949292276 
133.1204771908711, -1.9514827839865654, 21.659048882096275, 24.96302379270681, 76.16588395095147, 62.54963158039133 
132.18861668400882, -1.9010924361064796, 21.65905696205034, 26.746877594163404, 75.99706570267966, 62.55052772250212 
131.25716156690424, -1.8442499054553168, 21.659065823158407, 28.475365874395653, 75.8089927589439, 62.55153784581777 
130.3261585516072, -1.7809731936285822, 21.659075371223267, 30.145026496125737, 75.60246081604687, 62.55266135371834 
129.3956535297421, -1.7112822992077792, 21.65908550177442, 31.753187478070025, 75.37829720639513, 62.55389758332924 
128.46569148986774, -1.6351991986312784, 21.65909610022615, 33.29792508564264, 75.1373486640386, 62.55524580614155 
127.53631643663104, -1.5527478253248232, 21.659107042051005, 34.77800738955918, 74.88047025450159, 62.556705228692515 
126.60757131185723, -1.4639540471538008, 21.659118192968414, 36.192827979035066, 74.60851563742952, 62.55827499330577 
125.67949791771017, -1.3688456422638506, 21.659129409148292, 37.542334105954616, 74.32232873957251, 62.559954178890166 
124.75213684204816, -1.267452273380642, 21.65914053742928, 38.826952928006804, 74.02273683976964, 62.56174180179631 
123.82552738609049, -1.1598054606435404, 21.659151415551346, 40.047518814893245, 73.71054500881142, 62.5636368167294 
122.89970749450056, -1.0459385530513787, 21.659161872402507, 41.205203965097155, 73.38653180518423, 62.56563811771756 
121.97471368798159, -0.9258866986019153, 21.65917172827923, 42.301453910771635, 73.05144610114462, 62.56774453913423 
121.05058099847021, -0.7996868132092031, 21.65918079516029, 43.33792890189851, 72.70600489992638, 62.56995485677314 
120.12734290700298, -0.6673775484858357, 21.65918887699355, 44.31645167576284, 72.35089200142139, 62.57226778897483 
119.20503128432003, -0.5289992584789501, 21.65919576999556, 45.238961737335515, 71.98675737772224, 62.57468199780294 
118.28367633426022, -0.3845939654508377, 21.659201262963265, 46.10747599397056, 71.61421712907614, 62.5771960902692 
117.36330653999022, -0.23420532479627718, 21.659205137597645, 46.92405539183941, 71.23385390307135, 62.579808619604854 
116.44394861310091, -0.07787858918987717, 21.65920716883871, 47.690777077139145, 70.84621767368994, 62.582518086577885 
115.52562744559269, 0.08433942794266841, 21.659207125211534, 48.40971153741401, 70.45182679104319, 62.58532294085335 
114.6083660647622, 0.25240038953512667, 21.65920476918277, 49.0829041534747, 70.05116922634981, 62.588221582395924 
113.69218559099204, 0.42625447247867804, 21.6591998575272, 49.71236059836426, 69.64470394949956, 62.59121236291257 
112.77710519843617, 0.6058504056134054, 21.65919214170389, 50.30003554667569, 69.23286238807017, 62.594293587333496 
111.86314207858393, 0.791135508019689, 21.6591813682414, 50.847824197430846, 68.81604992680522, 62.59746351532967 
110.95031140667602, 0.9820557275173539, 21.6591672791315, 51.35755616072422, 68.39464741529875, 62.600720362865076 
110.0386263109387, 1.1785556792808973, 21.659149612231023, 51.83099130807377, 67.96901265903625, 62.60406230378169 
109.12809784459256, 1.3805786844813237, 21.659128101671165, 52.26981723587936, 67.53948187511249, 62.60748747141523 
108.21873496058605, 1.588066808866199, 21.659102478273784, 52.675648038566436, 67.10637109902319, 62.61099396024009 
107.31054448899536, 1.8009609011919825, 21.659072469974088, 53.0500241316807, 66.669977533042, 62.61457982754084 
106.4035311170271, 2.0192006314244546, 21.65903780224929, 53.394412904754475, 66.23058082998884, 62.61824309510889 
105.49769737155238, 2.242724528625749, 21.658998198552432, 53.710210018956666, 65.78844430879404, 62.62198175096206 
104.59304360409706, 2.4714700184486853, 21.6589533807511, 53.99874119540014, 65.34381610028333, 62.62579375108491 
103.68956797820621, 2.7053734601621686, 21.658903069570133, 54.26126436673186, 64.89693022315225, 62.62967702118816 
102.78726645909776, 2.944370183133866, 21.658846985038103, 54.49897208758596, 64.44800759125445, 62.633629458484585 
101.88613280551535, 3.188394522699568, 21.65878484693663, 54.712994119008926, 63.997256954170616, 62.63764893347999 
100.98615856368754, 3.437379855351642, 21.65871637525216, 54.90440011845271, 63.54487577361786, 62.64173329177682 
100.08733306329788, 3.6912586331819006, 21.658641290629618, 55.07420238075559, 63.091051038655586, 62.645880355888295 
99.18964341536717, 3.9499624175177597, 21.658559314827144, 55.223358587045695, 62.63596002288594, 62.650087927061115 
98.29307451194902, 4.213421911693334, 21.65847017117161, 55.35277452803964, 62.17977098697075, 62.65435378710518 
97.3976090275367, 4.481566992900911, 21.65837358501404, 55.46330677605763, 61.7226438298204, 62.65867570022726 
96.5032274220808, 4.754326743070907, 21.658269284184495, 55.55576528650169, 61.264730691777444, 62.66305141486743 
95.60990794551452, 5.031629478732294, 21.65815699944585, 55.63091591476832, 60.80617651303454, 62.667478665536194 
94.71762664368629, 5.313402779808205, 21.65803646494572, 55.689482838789964, 60.347119550410945, 62.67195517464981 
93.82635736559767, 5.599573517305114, 21.657907418666095, 55.73215088078778, 59.88769185547027, 62.676478654362256 
92.93607177184789, 5.890067879856773, 21.65776960287002, 55.75956772451578, 59.42801971680919, 62.681046808391926 
92.04673934418624, 6.184811399087564, 21.657622764544723, 55.77234602640284, 58.968224069182966, 62.6856573338408 
91.15832739607639, 6.4837289737628545, 21.657466655840665, 55.771065420658736, 58.508420871969165, 62.69030792300443 
90.27080108417941, 6.786744892696857, 21.657301034505917, 55.756274419686385, 58.04872145930614, 62.694996265170865 
89.3841234206637, 7.093782856391777, 21.657125664315238, 55.728492212107255, 57.58923286408139, 62.69972004840652 
88.4982552862548, 7.404765997384411, 21.656940315493394, 55.688210361419756, 57.13005811779067, 62.70447696132733 
87.61315544393997, 7.719616899279657, 21.65674476513204, 55.63589440881948, 56.67129652813861, 62.709264694853324 
86.72878055324726, 8.038257614452574, 21.656538797599758, 55.5719853840571, 56.213043936111866, 62.71408094394482 
85.84508518502193, 8.360609680403723, 21.6563222049446, 55.496901228426715, 55.75539295412199, 62.71892340931882 
84.962021836628, 8.686594134754463, 21.6560947872886, 55.41103813409255, 55.29843318669144, 62.7237897991434 
84.07954094750667, 9.016131528871846, 21.655856353213867, 55.31477180399709, 54.84225143503886, 62.72867783070905 
83.19759091502848, 9.34914194011455, 21.655606720139616, 55.208458636567535, 54.38693188681241, 62.7335852320749 
82.31611811058119, 9.68554498269375, 21.65534571468965, 55.09243683936372, 53.93255629211902, 62.73850974368868 
81.43506689583933, 10.025259817145066, 21.655073173049885, 54.96702747570277, 53.47920412690442, 62.743449119978465 
80.55437963916901, 10.368205158409133, 21.654788941315392, 54.83253544816218, 53.02695274465364, 62.74840113091527 
79.67399673212458, 10.714299282521175, 21.65449287582649, 54.68925042271109, 52.57587751730173, 62.75336356354454 
78.79385660600141, 11.063460031910767, 21.654184843493493, 54.53744769705748, 52.12605196617236, 62.75833422348555 
77.91389574841403, 11.415604819315678, 21.653864722109507, 54.37738901662843, 51.67754788369452, 62.76331093639727 
77.03404871987522, 11.770650630314496, 21.65353240065118, 54.209323341428764, 51.23043544658628, 62.768291549409305 
76.15424817035763, 12.128514024485023, 21.653187779566636, 54.03348756685006, 50.784783321137866, 62.773273932516986 
75.27442485582677, 12.489111135196492, 21.65283077105047, 53.85010720133175, 50.34065876117482, 62.77825597993901 
74.39450765473953, 12.852357668045254, 21.65246129930531, 53.65939700360919, 49.89812769923415, 62.78323561143685 
73.51442358450991, 13.218168897945217, 21.65207930078957, 53.461561582122464, 49.45725483144294, 62.78821077359482 
72.6340978179511, 13.586459664885233, 21.65168472445117, 53.256795959003206, 49.01810369654914, 62.79317944105955 
71.75345369970834, 13.957144368367453, 21.65127753194676, 53.04528610090862, 48.5807367495173, 62.798139617737974 
70.8724127627066, 14.330136960541559, 21.65085769784621, 52.827209418828915, 48.145215430069, 62.80308933795326 
69.99089474464233, 14.70535093805148, 21.650425209822103, 52.60273523886003, 47.71160022651639, 62.80802666755733 
69.10881760455803, 15.082699332612032, 21.64998006882391, 52.37202524580499, 47.27995073520973, 62.81294970499912 
