# MEX_intpoint_lon [deg], MEX_intpoint_lat [deg], MEX_intpoint_angle [deg], TGO_intpoint_lon [deg], TGO_intpoint_lat [deg], TGO_intpoint_angle [deg] 
-139.3885944922157, 19.607973286936645, 21.82338513964385, -27.387850310200257, 40.31092649995078, 62.91460989016719 
-140.27762603230403, 19.202925869356758, 21.823992367094938, -27.648684848299435, 40.72332783477719, 62.909920827341374 
-141.16503301034277, 18.79902844084161, 21.824587276108762, -27.904221874921884, 41.13822566295584, 62.90519429585424 
-142.05092058862414, 18.39637525136798, 21.82516970032336, -28.154355388049215, 41.555561503549825, 62.90043178251488 
-142.93539224680023, 17.99505988942569, 21.825739488301796, -28.398975265139924, 41.975276300062504, 62.89563482039201 
-143.81854976272712, 17.595175306691633, 21.8262965035471, -28.637967038842362, 42.397310387957894, 62.89080498828014 
-144.70049319429563, 17.196813841630767, 21.826840624499113, -28.871211661515815, 42.821603459733815, 62.88594391011025 
-145.58132086210085, 16.800067241990604, 21.827371744513485, -29.098585257910372, 43.24809452741217, 62.88105325430634 
-146.46112933281358, 16.40502668615712, 21.827889771822647, -29.319958865318387, 43.676721882300804, 62.87613473308695 
-147.34001340312795, 16.011782803342793, 21.828394629479067, -29.535198160471236, 44.10742305186992, 62.87119010171272 
-148.21806608417114, 15.620425692578134, 21.828886255280732, -29.74416317241388, 44.54013475357404, 62.86622115768012 
-149.09537858627016, 15.23104494048057, 21.829364601679217, -29.946707980547554, 44.97479284543747, 62.861229739861756 
-149.97204030398103, 14.843729637775478, 21.829829635670187, -30.14268039698727, 45.41133227320732, 62.856217727593815 
-150.84813880129656, 14.458568394545651, 21.83028133866677, -30.33192163233563, 45.84968701386292, 62.851187039711306 
-151.72375979695593, 14.075649354187014, 21.830719706355925, -30.514265943928635, 46.28979001525387, 62.84613963353149 
-152.59898714979144, 13.695060206049268, 21.831144748537962, -30.68954026556266, 46.73157313162242, 62.84107750378638 
-153.47390284405347, 13.316888196741886, 21.831556488949452, -30.857563817664683, 47.17496705474554, 62.836002681504894 
-154.348586974666, 12.94122014008639, 21.83195496506992, -31.018147696820957, 47.6199012404132, 62.83091723284556 
-155.22311773237186, 12.56814242569769, 21.83234022791245, -31.171094443533313, 48.06630382993651, 62.82582325788063 
-156.09757138873502, 12.197741026177793, 21.832712341798533, -31.316197587027457, 48.51410156635656, 62.82072288933229 
-156.97202228097626, 11.830101502906862, 21.833071384117552, -31.453241165895342, 48.963219704999176, 62.81561829126225 
-157.84654279662504, 11.465309010417363, 21.833417445071074, -31.58199922331448, 49.41358191799453, 62.810511657715615 
-158.72120335797862, 11.103448299338565, 21.833750627402562, -31.702235275553004, 49.86511019235068, 62.80540521131974 
-159.5960724063666, 10.744603717899635, 21.83407104611252, -31.81370175244123, 50.31772472114036, 62.80030120184017 
-160.47121638622662, 10.388859211981071, 21.83437882815983, -31.916139408470684, 50.771343787326394, 62.79520190469346 
-161.34669972900278, 10.036298323705438, 21.83467411214943, -32.00927670317266, 51.22588363971658, 62.79010961941954 
-162.22258483688748, 9.687004188559754, 21.8349570480068, -32.09282914943239, 51.68125836050132, 62.78502666811392 
-163.0989320664306, 9.341059531043529, 21.835227796639796, -32.16649862841616, 52.13737972378742, 62.77995539382148 
-163.9757997120508, 8.998546658837828, 21.835486529588223, -32.229972669829976, 52.59415704450004, 62.774898158893414 
-164.8532439894854, 8.659547455492593, 21.83573342866147, -32.28292369629588, 53.05149701697973, 62.76985734330832 
-165.73131901922574, 8.32414337163095, 21.835968685564982, -32.325008230729615, 53.509303542555905, 62.764835342959465 
-166.6100768099875, 7.99241541467138, 21.836192501515825, -32.35586606573921, 53.967477545328634, 62.75983456790936 
-167.48956724227375, 7.664444137070371, 21.83640508684793, -32.37511939424504, 54.42591677534118, 62.754857440613776 
-168.36983805209266, 7.340309623090328, 21.83660666060755, -32.38237190075748, 54.884515598272294, 62.749906394116095 
-169.25093481489736, 7.020091474099738, 21.836797450139457, -32.37720781304935, 55.343164770725245, 62.74498387021468 
-170.13290092982183, 6.703868792414732, 21.836977690664366, -32.359190914339464, 55.8017512001356, 62.74009231760408 
-171.01577760429015, 6.3917201636937255, 21.8371476248483, -32.32786351657521, 56.26015768826644, 62.73523418999266 
-171.89960383908186, 6.083723637899424, 21.83730750236422, -32.282745395984406, 56.71826265720617, 62.73041194419799 
-172.78441641394085, 5.779956708844904, 21.83745757944671, -32.22333269277825, 57.17593985673379, 62.725628038222105 
-173.6702498738191, 5.480496292343233, 21.837598118440205, -32.149096777752625, 57.633058051869476, 62.72088492930869 
-174.5571365158506, 5.185418702983404, 21.837729387341362, -32.059483089579906, 58.08948068938638, 62.71618507198377 
-175.44510637715405, 4.894799629557601, 21.837851659336156, -31.953909947839133, 58.54506554202728, 62.71153091608237 
-176.33418722356677, 4.608714109168536, 21.83796521233236, -31.831767348334274, 58.999664329146675, 62.70692490476297 
-177.22440453941448, 4.327236500048443, 21.838070328487984, -31.692415749036673, 59.45312231249173, 62.702369472511904 
-178.11578151842443, 4.050440453124544, 21.83816729373625, -31.535184857106373, 59.905277865847324, 62.69786704313956 
-179.00833905589175, 3.778398882369324, 21.838256397307866, -31.359372429945587, 60.35596201730647, 62.693420027771104 
-179.90209574220933, 3.5111839339772013, 21.838337931251008, -31.16424310617465, 60.80499796299443, 62.68903082283335 
179.20293214212586, 3.2488669544127684, 21.838412189949842, -30.94902728585655, 61.2522005511819, 62.68470180804012 
178.30673062991687, 2.9915184573790476, 21.83847946964212, -30.712920083298453, 61.69737573587631, 62.68043534437851 
177.4092880689693, 2.7392080897581397, 21.838540067936417, -30.45508038039845, 62.14031999919417, 62.67623377209813 
176.5105951219776, 2.492004596579727, 21.83859428332986, -30.174630013857783, 62.58081974210447, 62.672099408705414 
175.6106447644852, 2.2499757850769893, 21.83864241472666, -29.87065313571797, 63.018650643505325, 62.66803454696576 
174.70943228080628, 2.01318848789244, 21.83868476095842, -29.54219579368037, 63.45357698807635, 62.664041452915114 
173.80695525780212, 1.781708525500334, 21.83872162030654, -29.18826578559004, 63.88535096395261, 62.6601223638839 
172.903213576405, 1.555600667915215, 21.83875329002762, -28.807832851363674, 64.31371193201927, 62.656279486535226 
171.99820940078794, 1.3349285957599812, 21.838780065882172, -28.39982927554542, 64.73838566955277, 62.6525149949196 
171.0919471650812, 1.1197548607699324, 21.838802241667665, -27.96315098457389, 65.159083592064, 62.64883102854883 
170.184433557541, 0.9101408458125068, 21.838820108756067, -27.496659234684284, 65.57550195856203, 62.645229690490964 
169.27567750208135, 0.7061467245055423, 21.83883395563684, -26.99918299902538, 65.9873210670861, 62.641713045488665 
168.36569013708583, 0.5078314205198204, 21.83884406746582, -26.46952217582209, 66.39420444928045, 62.6382831181037 
167.4544847914215, 0.31525256665430207, 21.838850725620627, -25.906451752921278, 66.7957980750472, 62.63494189088884 
166.5420769575847, 0.12846646377514606, 21.838854207263136, -25.308727077324487, 67.19172958092886, 62.63169130259046 
165.62848426191658, -0.05247196028820326, 21.838854784909696, -24.675090390648055, 67.58160753887388, 62.62853324638332 
164.71372643183227, -0.22750919179436432, 21.838852726009485, -24.004278801932642, 67.96502078543051, 62.62546956814008 
163.79782526001895, -0.3965931719914097, 21.838848292531793, -23.295033876650876, 68.34153783519368, 62.6225020647373 
162.8808045655648, -0.5596733377696256, 21.8388417405625, -22.54611302361481, 68.71070640646805, 62.61963248240055 
161.96269015199164, -0.716700661965319, 21.83883331991058, -21.75630285790372, 69.0720530915425, 62.61686251509037 
161.04350976217412, -0.8676276932148048, 21.83882327372486, -20.92443470570273, 69.42508320859793, 62.61419380293109 
160.12329303013814, -1.0124085952566635, 21.838811838121746, -20.0494023935152, 69.76928087693116, 62.6116279306847 
159.2020714297427, -1.1509991855805124, 21.838799241824336, -19.13018242677492, 70.10410936165296, 62.60916642627151 
158.27987822026006, -1.2833569733203365, 21.83878570581339, -18.165856608496536, 70.42901173801087, 62.606810759339766 
157.3567483888804, -1.4094411962910438, 21.83877144299058, -17.15563707440322, 70.74341192861742, 62.60456233988566 
156.4327185901792, -1.5292128570676702, 21.83875665785461, -16.098893624507944, 71.0467161686641, 62.60242251692603 
155.50782708259683, -1.6426347580080236, 21.838741546190438, -14.995183110777726, 71.3383149541209, 62.60039257722487 
154.5821136619916, -1.749671535121141, 21.838726294772155, -13.844280496046057, 71.61758552534432, 62.59847374407576 
153.6556195923394, -1.850289690685886, 21.83871108107987, -12.646211032541872, 71.88389493278832, 62.59666717614189 
152.72838753366486, -1.9444576245267122, 21.838696073030956, -11.401282823765952, 72.13660372199301, 62.594973966354615 
151.80046146730035, -2.0321456638561832, 21.838681428726048, -10.110118838808505, 72.37507026115824, 62.593395140872595 
150.8718866185798, -2.1133260915973304, 21.838667296210108, -8.773687255215629, 72.59865571600854, 62.59193165810254 
149.9427093770869, -2.187973173102381, 21.838653813248843, -7.393328830784539, 72.8067296532203, 62.590584407783105 
149.01297721458627, -2.2560631811885306, 21.83864110712087, -5.970779865360435, 72.99867622570187, 62.58935421013285 
148.0827386007772, -2.3175744194157804, 21.838629294425825, -4.508189232464355, 73.17390086128441, 62.58824181506382 
147.1520429170194, -2.3724872435365456, 21.838618480908618, -3.0081279596280814, 73.33183734226076, 62.58724790146121 
146.22094036818885, -2.4207840810518455, 21.838608761300247, -1.473589935765221, 73.47195512866686, 62.58637307653077 
145.28948189283068, -2.4624494488143256, 21.838600219175195, 0.09201746152998064, 73.59376674573834, 62.58561787521417 
144.35771907178383, -2.4974699686238777, 21.838592926825687, 1.6848936904342509, 73.69683502848977, 62.5849827596737 
143.42570403545918, -2.52583438076773, 21.838586945152997, 3.3008767427930312, 73.78077999688416, 62.584468118846374 
142.49348936995918, -2.547533555462917, 21.83858232357587, 4.93548609304067, 73.84528512640851, 62.584074268068655 
141.56112802223245, -2.5625605021655202, 21.83857909995627, 6.583976172170736, 73.89010278327852, 62.58380144877199 
140.6286732044616, -2.570910376717504, 21.838577300542486, 8.241399024673902, 73.91505861221071, 62.58364982824947 
139.69617829788513, -2.5725804863088464, 21.838576939929684, 9.902674232165099, 73.92005469769633, 62.58361949949414 
138.76369675625875, -2.5675702922393397, 21.83857802103799, 11.562663710688454, 73.90507136551894, 62.5837104811091 
137.83128200916164, -2.5558814104713776, 21.83858053510811, 13.216248658492725, 73.8701675470136, 62.58392271728948 
136.8989873653538, -2.5375176099720154, 21.838584461714493, 14.858405782796707, 73.81547969026056, 62.58425607787658 
135.96686591639255, -2.5124848088494858, 21.838589768795984, 16.484279983950977, 73.74121926532608, 62.5847103584834 
135.03497044071176, -2.4807910682963334, 21.838596412704025, 18.089250917960733, 73.64766896994617, 62.58528528069237 
134.10335330836799, -2.4424465843581653, 21.83860433826824, 19.66899126723353, 73.53517779326779, 62.585980492324246 
133.17206638665328, -2.397463677553742, 21.838613478879367, 21.219515081599056, 73.4041551349398, 62.58679556777799 
132.24116094677007, -2.345856780378832, 21.838623756589392, 22.737215153848414, 73.25506420279129, 62.58773000844162 
131.3106875717595, -2.2876424227327097, 21.8386350822288, 24.21888901033752, 73.0884149238162, 62.58878324317263 
130.38069606586794, -2.2228392153124483, 21.838647355540765, 25.661753676210385, 72.90475660083366, 62.589954628848176 
129.45123536552973, -2.1514678310261637, 21.83866046533208, 27.06344987531574, 72.70467053280308, 62.59124345098384 
128.52235345213813, -2.0735509844823135, 21.838674289640647, 28.422036719237767, 72.48876279291554, 62.59264892442011 
127.59409726676523, -1.9891134096174707, 21.838688695919295, 29.735978214829576, 72.25765732823274, 62.59417019407596 
126.66651262698684, -1.8981818355304863, 21.83870354123572, 31.004123075284305, 72.0119895107994, 62.59580633576816 
125.73964414595518, -1.8007849605955333, 21.83871867248822, 32.22567936677133, 71.75240023554258, 62.597556357095506 
124.81353515385427, -1.6969534249314053, 21.838733926636976, 33.40018547884731, 71.47953062713569, 62.59941919838676 
123.88822762186243, -1.5867197813084062, 21.83874913095056, 34.527478793781185, 71.19401738801481, 62.601393733710694 
122.96376208873447, -1.4701184645781373, 21.838764103267383, 35.60766326982962, 70.89648879396228, 62.60347877194758 
122.04017759010577, -1.3471857597148271, 21.83877865227162, 36.641076966953165, 70.58756132264442, 62.60567305791992 
121.11751159060879, -1.2179597685600032, 21.83879257778347, 37.628260347945776, 70.26783688428993, 62.60797527358162 
120.19579991888098, -1.0824803753648742, 21.838805671063046, 38.56992599710288, 69.93790061206253, 62.61038403926361 
119.27507670553133, -0.940789211227067, 21.83881771512783, 39.46693022207925, 69.59831916213422, 62.612897914974376 
118.35537432412093, -0.7929296175202667, 21.838828485083038, 40.320246848580595, 69.24963946939512, 62.61551540175395 
117.43672333520138, -0.6389466084166265, 21.838837748464538, 41.13094338504661, 68.89238790348793, 62.61823494307931 
116.51915243344308, -0.47888683260303905, 21.838845265593864, 41.90015962620789, 68.5270697707871, 62.621054926319346 
115.60268839787445, -0.3127985342928363, 21.838850789944896, 42.629088679334615, 68.15416911047251, 62.6239736842381 
114.68735604524069, -0.14073151363496353, 21.838854068521645, 43.318960333041666, 67.77414873646124, 62.626989496543295 
113.77317818648133, 0.03726291337762896, 21.838854842246693, 43.97102664297197, 67.38745048123667, 62.63010059147956 
112.86017558631387, 0.2211319553988089, 21.838852846359796, 44.58654957861041, 66.9944956022155, 62.63330514746292 
111.94836692590128, 0.4108213865188089, 21.838847810826003, 45.16679055799037, 66.5956853159592, 62.63660129475558 
111.03776876857077, 0.6062755872528914, 21.838839460753, 45.71300168944678, 66.19140143008251, 62.639987117178464 
110.12839552854267, 0.807437585630964, 21.838827516816803, 46.22641853946093, 65.78200704700667, 62.64346065385921 
109.22025944261813, 1.0142490982918966, 21.83881169569556, 46.7082542509929, 65.36784731767005, 62.647019901014005 
108.31337054476775, 1.2266505714878633, 21.838791710510613, 47.15969484581996, 64.94925022689515, 62.6506628137603 
107.40773664355324, 1.444581221906758, 21.83876727127446, 47.581895555941685, 64.526527395309, 62.65438730795912 
106.5033633023095, 1.6679790772226029, 21.838738085344918, 47.97597804201195, 64.09997488551987, 62.65819126208383 
105.60025382200564, 1.8967810162871428, 21.838703857884898, 48.343028370219514, 63.66987400268821, 62.66207251911376 
104.69840922669931, 2.1309228088780743, 21.838664292327167, 48.68409563246773, 63.2364920817209, 62.66602888845005 
103.7978282514915, 2.3703391549227817, 21.838619090843622, 49.000191107692835, 62.80008325509025, 62.67005814785177 
102.89850733288617, 2.6149637231194003, 21.838567954818224, 49.292287874428084, 62.360889196772334, 62.67415804538949 
102.00044060145353, 2.864729188880246, 21.838510585323213, 49.56132079610328, 61.91913983904115, 62.67832630141477 
101.10361987669239, 3.1195672715262366, 21.83844668359784, 49.80818681097354, 61.475054059879405, 62.682560610542424 
100.20803466398469, 3.3794087706640736, 21.838375951529002, 50.03374546797102, 61.02884033960395, 62.68685864364419 
99.31367215353282, 3.644183601681685, 21.838298092133215, 50.238819658179224, 60.580697385978226, 62.69121804985069 
98.42051722116811, 3.913820830300787, 21.838212810039167, 50.424196499082754, 60.130814727624326, 62.69563645855977 
97.52855243091798, 4.188248706129253, 21.838119811970437, 50.59062833530625, 59.6793732759699, 62.70011148144939 
96.63775803921943, 4.467394695159056, 21.838018807227474, 50.738833825291536, 59.22654585629408, 62.70464071449172 
95.7481120006646, 4.751185511159786, 21.837909508168448, 50.86949908834923, 58.772497708684, 62.709221739967525 
94.8595899751669, 5.039547145920505, 21.837791630688166, 50.98327889083259, 58.317386959896766, 62.7138521284776 
93.97216533643491, 5.332404898296925, 21.837664894694573, 51.08079785389188, 57.86136506725026, 62.71852944094952 
93.08580918164463, 5.629683402023706, 21.83752902458208, 51.162651668445925, 57.40457723575242, 62.72325123063765 
92.20049034220087, 5.931306652255468, 21.837383749701207, 51.22940830571783, 56.947162809729086, 62.72801504511401 
91.3161753954818, 6.237198030803255, 21.837228804823866, 51.281609213984005, 56.48925564023389, 62.73281842824786 
90.43282867746333, 6.547280330036269, 21.8370639306037, 51.31977049413173, 56.0309844295253, 62.737658922172486 
89.55041229612232, 6.861475775422143, 21.836888874030834, 51.34438404825982, 55.57247305388002, 62.742534069236235 
88.66888614552205, 7.179706046681607, 21.83670338888055, 51.35591869693068, 55.11384086598475, 62.747441413936826 
87.78820792048617, 7.501892297536835, 21.836507236155153, 51.35482126182825, 54.65520297810947, 62.75237850483602 
86.90833313177203, 7.827955174034978, 21.836300184518546, 51.34151761152838, 54.196670527222274, 62.75734289645351 
86.02921512165814, 8.157814831431718, 21.83608201072294, 51.31641366887269, 53.738350923155465, 62.762332151137706 
85.15080507986596, 8.491390949621652, 21.835852500027094, 51.279896379082295, 53.28034808088169, 62.76734384091158 
84.27305205973957, 8.828602747105325, 21.835611446605515, 51.232334638271674, 52.82276263790435, 62.77237554929208 
83.39590299461365, 9.16936899348466, 21.83535865394827, 51.174080182446325, 52.36569215771307, 62.77742487308117 
82.51930271430423, 9.513608020480973, 21.835093935250526, 51.10546843740703, 51.90923132020122, 62.782489424126744 
81.6431939616625, 9.861237731472018, 21.834817113791694, 51.02681933024913, 51.45347209988896, 62.787566831051976 
80.76751740913832, 10.212175609546053, 21.834528023303385, 50.93843806335365, 50.99850393274536, 62.79265474095113 
79.89221167530472, 10.566338724073486, 21.834226508325877, 50.840615851923324, 50.544413872351704, 62.79775082105085 
79.01721334130227, 10.92364373579779, 21.833912424552476, 50.73363062623308, 50.09128673610263, 62.80285276033505 
78.14245696716696, 11.284006900449688, 21.8335856391614, 50.61774769984615, 49.63920524209436, 62.80795827113197 
77.26787510801333, 11.647344070889648, 21.833246031134745, 50.4932204051006, 49.18825013730777, 62.813065090662136 
76.39339833004891, 12.013570697785855, 21.832893491564068, 50.3602906972019, 48.738500317652225, 62.81817098254589 
75.51895522640555, 12.382601828835686, 21.83252792394214, 50.219189728269455, 48.29003294039808, 62.823273738269044 
74.64447243277773, 12.754352106540503, 21.832149244440608, 50.07013839268195, 47.842923529489426, 62.828371178605934 
73.76987464286628, 13.128735764544885, 21.831757382172995, 49.913347845051796, 47.397246074194165, 62.83346115499789 
72.89508462363325, 13.505666622552255, 21.831352279442918, 49.749019992134905, 46.9530731215176, 62.83854155088677 
72.02002323038006, 13.885058079830717, 21.83093389197691, 49.5773479599506, 46.51047586277444, 62.84361028300224 
71.14460942167042, 14.266823107323514, 21.83050218914173, 49.398516537349614, 46.06952421468786, 62.8486653026015 
70.26876027412537, 14.650874238380137, 21.830057154145788, 49.21270259722742, 45.63028689535641, 62.85370459666138 
