# MEX_intpoint_lon [deg], MEX_intpoint_lat [deg], MEX_intpoint_angle [deg], TGO_intpoint_lon [deg], TGO_intpoint_lat [deg], TGO_intpoint_angle [deg] 
-139.43297611840697, 19.618153896562674, 21.85425747404512, -27.356907678961356, 39.93760975415706, 62.9227176847574 
-140.32097757598942, 19.211477225049933, 21.854868331721033, -27.612627285083704, 40.35114819443119, 62.918023491022176 
-141.2073549001836, 18.80595979354056, 21.85546675465674, -27.862975395672173, 40.76716322357759, 62.91329115275633 
-142.09221392531066, 18.40169599077279, 21.856052575561016, -28.107845175006076, 41.18559534023708, 62.908522159192856 
-142.97565878189366, 17.99877954353357, 21.85662564220868, -28.34712566878144, 41.60638444669557, 62.90371804663519 
-143.85779187819548, 17.59730354173873, 21.857185817455587, -28.580701582187654, 42.029469815311685, 62.898880397921545 
-144.73871388271513, 17.197360462420637, 21.857732979235195, -28.808453047134673, 42.45479005245297, 62.89401084183295 
-145.6185237074917, 16.79904219259041, 21.85826702053716, -29.030255378017813, 42.8822830598042, 62.88911105244577 
-146.4973184920804, 16.402440050943113, 21.858787849367836, -29.24597881537369, 43.31188599290244, 62.88418274842874 
-147.3751935880733, 16.007644808376945, 21.859295388692708, -29.45548825674542, 43.7435352167411, 62.87922769228489 
-148.25224254405043, 15.614746707298186, 21.859789576361127, -29.658642974039704, 44.177166258274525, 62.87424768953884 
-149.12855709085645, 15.223835479686167, 21.86027036501316, -29.855296316620937, 44.6127137556409, 62.86924458786968 
-150.00422712710747, 14.835000363893355, 21.860737721969002, -30.04529539934972, 45.05011140390839, 62.864220276190316 
-150.87934070484448, 14.448330120157015, 21.861191629100954, -30.228480774735186, 45.489291897133995, 62.8591766836732 
-151.7539840152566, 14.063913044800792, 21.861632082688207, -30.404686088331207, 45.93018686650904, 62.85411577872415 
-152.62824137440947, 13.681836983104786, 21.862059093254704, -30.573737716468713, 46.37272681434821, 62.849039567903546 
-153.50219520891986, 13.302189340825013, 21.862472685390188, -30.735454385377626, 46.81684104366043, 62.843950094796895 
-154.37592604152994, 12.92505709434319, 21.86287289755492, -30.889646770715387, 47.262457583020876, 62.838849438834856 
-155.24951247653908, 12.550526799429848, 21.863259781868088, -31.036117076483688, 47.70950310644138, 62.83373971406371 
-156.1230311850629, 12.178684598604166, 21.863633403880364, -31.174658592282025, 48.15790284791531, 62.82862306786735 
-156.9965568900944, 11.809616227075585, 21.86399384233095, -31.305055227818183, 48.607580510287434, 62.823501679641595 
-157.87016235135198, 11.443407017253035, 21.864341188889306, -31.427081023570903, 49.05845816807513, 62.81837775942204 
-158.74391834990487, 11.080141901809085, 21.864675547882044, -31.540499636481908, 49.51045616383822, 62.813253546466214 
-159.6178936725758, 10.719905415287192, 21.864997036005338, -31.64506379954489, 49.96349299766714, 62.808131307791605 
-160.49215509612597, 10.362781694241951, 21.865305782023153, -31.740514754157815, 50.417485209326735, 62.803013336670396 
-161.36676737123608, 10.00885447590315, 21.865601926451838, -31.826581654118534, 50.872347252561035, 62.797901951082416 
-162.24179320630367, 9.658207095356, 21.865885621231392, -31.902980940170465, 51.327991361029085, 62.79279949212757 
-163.1172932510825, 9.310922481231579, 21.866157029383892, -31.969415684052162, 51.784327405304985, 62.78770832239894 
-163.9933260801984, 8.967083149902612, 21.86641632465956, -32.02557490107443, 52.24126274033775, 62.78263082431828 
-164.86994817658066, 8.626771198181961, 21.866663691170892, -32.071132830345775, 52.698702042724726, 62.77756939843524 
-165.74721391485534, 8.290068294522367, 21.86689932301534, -32.10574818189823, 53.1565471371118, 62.772526461691584 
-166.6251755447517, 7.957055668718294, 21.8671234238871, -32.12906335013659, 53.61469681098908, 62.76750444565279 
-167.50388317458078, 7.6278141001123645, 21.86733620667846, -32.14070359325353, 54.07304661710686, 62.762505794707664 
-168.38338475484875, 7.302423904311178, 21.867537893071255, -32.14027617852914, 54.531488662690634, 62.75753296423836 
-169.26372606207445, 6.980964918417363, 21.867728713118975, -32.127369493777806, 54.9899113845886, 62.75258841876228 
-170.14495068288534, 6.663516484786986, 21.867908904820045, -32.10155212562934, 55.44819930943978, 62.74767463004783 
-171.02709999847147, 6.350157433323951, 21.8680787136829, -32.06237190585041, 55.90623279790628, 62.74279407520553 
-171.91021316948095, 6.040966062325613, 21.86823839228337, -32.00935492754198, 56.36388777197185, 62.73794923475674 
-172.79432712144643, 5.7360201178963175, 21.868388199814913, -31.942004533808767, 56.8210354242705, 62.733142590681545 
-173.67947653083505, 5.43539677194837, 21.868528401632453, -31.85980028240904, 57.277541908376016, 62.72837662444836 
-174.5656938118183, 5.139172598813158, 21.868659268790207, -31.762196890982697, 57.73326800895768, 62.72365381502641 
-175.4530091038637, 4.847423550487548, 21.86878107757428, -31.648623168750934, 58.18806879069229, 62.718976636884 
-176.34145026025018, 4.560224930544379, 21.868894109030517, -31.51848094211452, 58.6417932248197, 62.71434755797405 
-177.23104283761555, 4.277651366738741, 21.868998648488308, -31.371143983385593, 59.09428379224366, 62.709769037709236 
-178.12181008664427, 3.9997767823449806, 21.869094985080974, -31.205956954010947, 59.54537606211564, 62.70524352492896 
-179.01377294400746, 3.7266743662630217, 21.869183411263222, -31.02223437612759, 59.99489824490193, 62.70077345586019 
-179.9069500256675, 3.4584165419357524, 21.86926422232655, -30.819259649183156, 60.44267071902977, 62.696361252074546 
179.1986423783379, 3.1950749351229506, 21.869337715912955, -30.5962841317074, 60.888505530346215, 62.69200931844347 
178.30299030751718, 2.9367203405805316, 21.869404191527835, -30.352526312192225, 61.33220586381029, 62.68772004109446 
177.4060821328381, 2.6834226876978247, 21.869463950052527, -30.087171097486426, 61.7735654870868, 62.68349578536963 
176.50790855681544, 2.435251005148831, 21.869517293257193, -29.79936925219314, 62.21236816603245, 62.67933889379014 
175.60846261166174, 2.1922733846173665, 21.86956452331476, -29.488237028333657, 62.64838705247332, 62.67525168402736 
174.70773965538666, 1.9545569436592736, 21.869605942316465, -29.152856031056032, 63.0813840451862, 62.67123644688459 
173.80573736573575, 1.7221677877688302, 21.869641851789577, -28.79227337346658, 63.51110912563164, 62.667295444290346 
172.90245573185982, 1.4951709717195902, 21.869672552218123, -28.405502181762778, 63.93729967076603, 62.66343090730629 
171.9978970436108, 1.2736304602537503, 21.86969834256708, -27.991522520749125, 64.35967974620446, 62.65964503415202 
171.0920658783636, 1.0576090881972389, 21.86971951981068, -27.54928281947764, 64.77795938414243, 62.655939988248996 
170.18496908526689, 0.8471685200810323, 21.869736378465593, -27.07770188708028, 65.19183385179701, 62.65231789628564 
169.27661576683226, 0.6423692093524708, 21.869749210129296, -26.57567161969041, 65.60098291772461, 62.64878084630645 
168.36701725777667, 0.44327035726315855, 21.86975830302463, -26.04206051043093, 66.00507012523732, 62.6453308858271 
167.45618710103807, 0.24992987152288212, 21.869763941550804, -25.475718085412893, 66.40374208430038, 62.64197001997776 
166.54414102089373, 0.062404324811711445, 21.869766405841563, -24.875480399030373, 66.7966277957621, 62.63870020967716 
165.63089689311545, -0.11925108675541221, 21.869765971331237, -24.24017673087351, 67.183338024564, 62.635523369839305 
164.7164747121062, -0.2949825851149341, 21.869762908328923, -23.568637633426327, 67.56346474169293, 62.6324413676156 
163.80089655497065, -0.4647378515932625, 21.869757481601734, -22.859704483247413, 67.93658065805917, 62.62945602067365 
162.8841865424813, -0.6284660679976988, 21.86974994996731, -22.112240687172786, 68.30223887716551, 62.62656909551598 
161.96637079691104, -0.7861179573582325, 21.869740565896482, -21.32514468758164, 68.65997269730607, 62.623782305840095 
161.04747739671498, -0.9376458242179431, 21.869729575126254, -20.497364895018283, 69.00929559798507, 62.6210973109419 
160.12753632805325, -1.083003594368912, 21.869717216283874, -19.62791665033057, 69.34970144911621, 62.61851571416497 
159.20657943315766, -1.2221468539303912, 21.86970372052242, -18.715901279688033, 69.68066498514088, 62.61603906139753 
158.28464035555794, -1.3550328876660562, 21.869689311168308, -17.760527252094224, 70.00164258920348, 62.61366883961846 
157.36175448219257, -1.4816207164375568, 21.86967420338132, -16.76113337821422, 70.3120734346047, 62.6114064754952 
156.43795888244267, -1.6018711336924463, 21.869658603827425, -15.717213899893114, 70.61138103149885, 62.60925333403468 
155.51329224413888, -1.7157467408859088, 21.86964271036505, -14.628445210882353, 70.89897522573924, 62.60721071728907 
154.5877948066026, -1.8232119817372283, 21.869626711745006, -13.494713821561279, 71.17425469338755, 62.60527986311848 
153.66150829079513, -1.9242331752241262, 21.869610787324596, -12.316145036175268, 71.43660996816328, 62.60346194401169 
152.7344758266611, -2.018778547220485, 21.869595106796186, -11.093131654948829, 71.68542702952071, 62.60175806596679 
151.80674187776245, -2.1068182606859125, 21.86957982993078, -9.826361852748107, 71.92009146570813, 62.600169267433216 
150.87835216331212, -2.188324444318786, 21.86956510633667, -8.516845231131486, 72.13999320885324, 62.598696518316444 
149.94935357772815, -2.263271219588339, 21.86955107523372, -7.165935904971211, 72.34453181786117, 62.5973407190466 
149.01979410783753, -2.3316347260650265, 21.86953786524343, -5.775351384166745, 72.53312226007174, 62.59610269971257 
148.08972274787263, -2.393393144973268, 21.869525594195185, -4.347185962590395, 72.70520111499003, 62.59498321926236 
147.15918941241029, -2.4485267208951527, 21.869514368948813, -2.883917347454169, 72.86023309422657, 62.59398296477111 
146.22824484741443, -2.4970177815589665, 21.869504285233777, -1.3884053675938561, 72.9977177427769, 62.59310255077742 
145.2969405395513, -2.5388507556518505, 21.86949542750522, 0.13611820129562843, 73.11719616005009, 62.59234251868923 
144.36532862395433, -2.574012188601614, 21.86948786881696, 1.686069360172476, 73.21825755700458, 62.59170333625991 
143.4334617906232, -2.6024907562787436, 21.86948167071173, 3.2575414387748274, 73.30054545080004, 62.591185397134936 
142.50139318964744, -2.624277276575994, 21.869476883128733, 4.846344298932343, 73.36376329273833, 62.59078902047046 
141.56917633545092, -2.6393647188292637, 21.86947354432861, 6.448052511749344, 73.4076793306383, 62.590514450623594 
140.63686501025836, -2.6477482110503194, 21.869471680836007, 8.058061326649783, 73.43213052404445, 62.59036185691548 
139.70451316698802, -2.6494250449485404, 21.869471307399756, 9.671648783801254, 73.43702535965868, 62.590331333466615 
138.7721748317781, -2.6443946787259365, 21.869472426970724, 11.284041936478863, 73.42234545381805, 62.590422899105725 
137.83990400635577, -2.6326587376365924, 21.869475030697412, 12.890484884383781, 73.38814587633921, 62.590636497351305 
136.9077545704587, -2.6142210123087577, 21.86947909793919, 14.486306199953535, 73.3345541823465, 62.590971996466585 
135.97578018451858, -2.5890874548349663, 21.869484596297347, 16.066983369713565, 73.2617681919842, 62.59142918958731 
135.04403419281493, -2.5572661726423456, 21.869491481663665, 17.62820206752673, 73.17005260826286, 62.59200779492268 
134.11256952730523, -2.518767420162575, 21.869499698286727, 19.165908406028716, 73.05973460711377, 62.592707456028606 
133.1814386123342, -2.4736035883275314, 21.86950917885561, 20.676352743459958, 72.93119856817044, 62.593527742153555 
132.2506932704208, -2.421789191923553, 21.86951984460102, 22.156124114214464, 72.78488013800667, 62.5944681486558 
131.32038462931692, -2.3633408548437886, 21.869531605413727, 23.602174858870573, 72.62125982882525, 62.595528097492156 
130.39056303052453, -2.298277293284487, 21.86954435998003, 25.01183551228967, 72.44085635529184, 62.596706937777085 
129.46127793945328, -2.2266192969371437, 21.86955799593419, 26.382820432892682, 72.24421990166583, 62.59800394641176 
128.5325778573906, -2.1483897082344607, 21.869572390027535, 27.713224998837443, 72.03192549258095, 62.59941832878206 
127.60451023544982, -2.0636133997135095, 21.869587408314167, 29.00151544497089, 71.80456661613688, 62.60094921952429 
126.67712139065232, -1.9723172495649803, 21.869602906352746, 30.24651256601418, 71.56274921981428, 62.60259568335829 
125.75045642428924, -1.8745301154421317, 21.86961872942445, 31.447370573004957, 71.3070861703917, 62.604356715986164 
124.8245591426998, -1.7702828066079073, 21.869634712766473, 32.60355237429877, 71.03819224045147, 62.6062312450558 
123.89947198059076, -1.6596080545028256, 21.869650681820968, 33.714802475714365, 70.75667965769951, 62.608218131187655 
122.97523592701243, -1.542540481820055, 21.869666452499054, 34.7811185741484, 70.46315423020384, 62.61031616906356 
122.05189045409317, -1.4191165701777877, 21.869681831459467, 35.80272277190134, 70.15821204135065, 62.61252408857634 
121.12947344862502, -1.2893746264818384, 21.86969661640164, 36.780033179709186, 69.84243669300882, 62.61484055603812 
120.20802114657906, -1.1533547480742967, 21.869710596372634, 37.71363651694698, 69.51639706397502, 62.61726417544653 
119.28756807061883, -1.0110987867662198, 21.869723552087635, 38.60426216651285, 69.18064554291428, 62.61979348980637 
118.36814697066731, -0.8626503118542169, 21.869735256263617, 39.45275800547952, 68.8357166902624, 62.62242698250558 
117.44978876757138, -0.7080545722222388, 21.869745473965594, 40.26006821413787, 68.48212628139743, 62.625163078743405 
116.53252249989575, -0.547358457631016, 21.86975396296514, 41.027213166930444, 68.1203706832914, 62.62800014700913 
115.61637527386665, -0.3806104592980767, 21.869760474110674, 41.75527142881079, 67.75092651832354, 62.630936500609394 
114.7013722164743, -0.20786062987169515, 21.869764751708917, 42.445363818532435, 67.37425057152473, 62.6339703992418 
113.78753643173177, -0.029160542901934795, 21.86976653391717, 43.09863945437823, 66.99077990085101, 62.63710005061363 
112.8748889600773, 0.15543674808841496, 21.869765553145797, 43.71626366566414, 66.60093211383861, 62.64032361210274 
111.96344874089695, 0.34587675083121, 21.869761536470406, 44.299407632691036, 66.20510577792743, 62.6436391924589 
111.05323257813315, 0.5421035757378397, 21.869754206053237, 44.8492396064483, 65.80368093566828, 62.64704485354372 
110.14425510893757, 0.7440599774221635, 21.86974327957303, 45.366917555267314, 65.39701969981931, 62.6505386121065 
109.23652877531518, 0.951687396224169, 21.869728470663105, 45.853583086998825, 64.98546690689396, 62.65411844159415 
108.33006379869985, 1.1649259996386292, 21.86970948935674, 46.31035650063167, 64.56935081099599, 62.65778227399265 
107.42486815739284, 1.38371472355552, 21.869686042539527, 46.73833282933544, 64.148983802732, 62.66152800169823 
106.52094756678883, 1.6079913132214319, 21.869657834407988, 47.1385787466961, 63.72466314062531, 62.66535347941556 
105.618305462307, 1.8376923638339184, 21.86962456693384, 47.51213021864156, 63.29667168476576, 62.6692565260809 
104.71694298493915, 2.0727533606835142, 21.869585940333334, 47.85999079463104, 62.86527862444244, 62.673234926807794 
103.81685896932062, 2.3131087187614248, 21.86954165354113, 48.18313044267606, 62.43074019323122, 62.67728643485317 
102.91804993422602, 2.5586918217538677, 21.869491404687853, 48.4824848433628, 61.99330036648278, 62.68140877360116 
102.02051007538654, 2.809435060347417, 21.86943489158101, 48.758955068055364, 61.55319153739571, 62.685599638562785 
101.1242312605226, 3.0652698697733745, 21.86937181218836, 49.01340757574774, 61.11063516889786, 62.68985669938879 
100.22920302648292, 3.3261267665221363, 21.86930186512331, 49.24667447153743, 60.66584241941759, 62.69417760189349 
99.33541257837778, 3.5919353841627744, 21.869224750131586, 49.459553977392055, 60.219014741331385, 62.69855997008719 
98.44284479059408, 3.862624508205932, 21.869140168578557, 49.65281107278339, 59.77034445144599, 62.703001408214995 
97.55148220957662, 4.13812210995244, 21.869047823936626, 49.82717826890277, 59.32001527333216, 62.70749950279982 
96.66130505826156, 4.418355379272965, 21.868947422271994, 49.98335648559389, 58.86820285169078, 62.71205182468689 
95.77229124204622, 4.7032507562683525, 21.86883867273018, 50.12201600489677, 58.41507523921483, 62.71665593108775 
94.8844163561811, 4.992733961763134, 21.86872128801971, 50.24379747924948, 57.960793356627356, 62.721309367621835 
93.99765369446989, 5.286730026588969, 21.86859498489316, 50.34931297599932, 57.50551142673618, 62.726009670352695 
93.11197425916579, 5.5851633196174975, 21.86845948462531, 50.439147042991245, 57.049377383461895, 62.73075436781718 
92.22734677195355, 5.887957574506196, 21.868314513487242, 50.51385778268203, 56.59253325687424, 62.735540983045475 
91.34373768590899, 6.1950359151236905, 21.86815980321629, 50.57397792452573, 56.13511553531949, 62.740367035569406 
90.46111119833127, 6.506320879624335, 21.867995091480832, 50.62001588733632, 55.6772555057475, 62.74523004341728 
89.5794292643449, 6.821734443145219, 21.867820122339605, 50.652456824999376, 55.2190795733509, 62.75012752509315 
88.69865161117389, 7.141198039101456, 21.867634646694686, 50.67176365031453, 54.76070956162068, 62.75505700153835 
87.81873575299178, 7.464632579058964, 21.86743842273779, 50.678378032939705, 54.3022629939008, 62.76001599807337 
86.93963700625788, 7.791958471166336, 21.86723121638908, 50.67272136840542, 53.84385335749559, 62.76500204631816 
86.06130850545247, 8.123095637130563, 21.8670128017281, 50.65519571600074, 53.38559035134732, 62.77001268608904 
85.18370121912974, 8.457963527723567, 21.866782961416124, 50.626184704025235, 52.92758011826163, 62.77504546726993 
84.30676396621118, 8.796481136809325, 21.86654148710945, 50.58605440147308, 52.469925462615016, 62.78009795165685 
83.430443432448, 9.138567013883417, 21.86628817986306, 50.53515415568528, 52.0127260544339, 62.78516771477299 
82.55468418698634, 9.48413927511935, 21.866022850524114, 50.473817395888794, 51.556078620689085, 62.7902523476536 
81.67942869897392, 9.833115612917991, 21.865745320114804, 50.4023624028491, 51.10007712460359, 62.795349458598245 
80.80461735415416, 10.185413303958347, 21.865455420203986, 50.32109304511094, 50.64481293372731, 62.800456674889006 
79.9301884713978, 10.540949215750292, 21.86515299326713, 50.2302994824944, 50.19037497748702, 62.80557164447378 
79.05607831912981, 10.899639811690836, 21.864837893034156, 50.13025883766488, 49.73684989487847, 62.81069203761169 
78.18222113161478, 11.26140115462825, 21.86450998482465, 50.02123583670845, 49.28432217292504, 62.81581554848078 
77.30854912507081, 11.626148908938939, 21.864169145869944, 49.90348341972706, 48.83287427648914, 62.82093989674544 
76.43499251358838, 11.993798341124348, 21.863815265621813, 49.777243322525806, 48.38258676998386, 62.82606282908268 
75.56147952483788, 12.364264318935964, 21.863448246047163, 49.64274663050112, 47.93353843149717, 62.83118212066587 
74.68793641555582, 12.737461309038206, 21.863068001908445, 49.50021430585841, 47.4858063598072, 62.83629557660499 
73.81428748680752, 13.11330337322027, 21.862674461029396, 49.34985768929346, 47.03946607473465, 62.84140103334149 
72.94045509903093, 13.491704163168972, 21.862267564545665, 49.19187897726658, 46.59459161124882, 62.84649635999754 
72.06635968687414, 13.872576913816253, 21.86184726714009, 49.02647167598384, 46.15125560771502, 62.851579459677914 
71.19191977384641, 14.255834435275686, 21.86141353726222, 48.853821033178654, 45.70952938864499, 62.85664827072394 
70.3170519868106, 14.641389103383975, 21.860966357331826, 48.67410444875969, 45.26948304228637, 62.86170076791827 
