# MEX_intpoint_lon [deg], MEX_intpoint_lat [deg], MEX_intpoint_angle [deg], TGO_intpoint_lon [deg], TGO_intpoint_lat [deg], TGO_intpoint_angle [deg] 
-138.24219951234335, 19.326726618681633, 21.06321701900706, -27.610472172169857, 49.28423672708816, 62.72675239764677 
-139.15561658260117, 18.96344318915995, 21.06373513019811, -28.038530230684376, 49.653002480244666, 62.72260593948699 
-140.06743505654737, 18.601085517996985, 21.06424366081896, -28.464205225415988, 50.02451151695565, 62.71843839850751 
-140.97774278605104, 18.23974334813155, 21.064742467492838, -28.887459802141006, 50.39872866266218, 62.71425107485756 
-141.88662644927953, 17.879505796438227, 21.065231418446594, -29.308254950902278, 50.775618690883825, 62.71004529511094 
-142.7941715180157, 17.520461368342275, 21.065710393526455, -29.726549885102294, 51.15514632353301, 62.705822411818474 
-143.70046222643, 17.162697971813035, 21.066179284199613, -30.14230191258743, 51.53727623077538, 62.701583803027866 
-144.60558154118903, 16.806302930695157, 21.066637993541953, -30.555466298063664, 51.92197303041562, 62.69733087177192 
-145.50961113279234, 16.451362997339015, 21.06708643621173, -30.96599611612119, 52.309201286786454, 62.69306504552458 
-146.41263134803393, 16.097964364494292, 21.06752453840952, -31.373842094074263, 52.698925509116386, 62.68878777562572 
-147.314721183494, 15.74619267643223, 21.067952237824265, -31.7789524437452, 53.09111014934885, 62.68450053667475 
-148.21595825997284, 15.396133039264509, 21.068369483565785, -32.18127268123419, 53.4857195993827, 62.68020482589289 
-149.11641879778554, 15.047870030428465, 21.06877623608365, -32.58074543362018, 53.88271818770063, 62.67590216245549 
-150.0161775928437, 14.701487707309917, 21.069172467072683, -32.977310231431396, 54.28207017534898, 62.67159408679371 
-150.91530799345634, 14.357069614977211, 21.06955815936522, -33.370903285603205, 54.683739751227286, 62.6672821598668 
-151.8138818777899, 14.014698793001191, 21.0699333068103, -33.7614572475091, 55.087691026642766, 62.662967962405055 
-152.7119696319325, 13.674457781337962, 21.070297914139903, -34.14890095049971, 55.493888029078384, 62.6586530941241 
-153.6096401285153, 13.336428625252601, 21.070651996822555, -34.53315913121933, 55.90229469511879, 62.65433917291088 
-154.50696070584863, 13.000692879263838, 21.070995580904455, -34.91415212878117, 56.31287486247069, 62.6500278339823 
-155.40399714753877, 12.667331610091036, 21.07132870283827, -35.29179555967351, 56.72559226100819, 62.64572072901666 
-156.3008136625545, 12.33642539858676, 21.0716514093, -35.66599996603214, 57.14041050276431, 62.64141952525878 
-157.19747286572206, 12.008054340639251, 21.071963756994144, -36.036670434649935, 57.55729307078173, 62.63712590459978 
-158.09403575862882, 11.682298047031319, 21.072265812447277, -36.403706183793986, 57.97620330672448, 62.6328415626315 
-158.9905617109251, 11.359235642243144, 21.072557651790525, -36.76700011456404, 58.39710439714134, 62.62856820767708 
-159.88710844201754, 11.038945762188513, 21.072839360531166, -37.126438323142715, 58.81995935825768, 62.62430755979801 
-160.78373200315207, 10.721506550875475, 21.07311103331362, -37.48189956985615, 59.2447310191577, 62.62006134977848 
-161.680486759892, 10.406995655983803, 21.073372773670243, -37.833254700472494, 59.671382003202, 62.61583131808842 
-162.5774253749994, 10.09549022335393, 21.073624693762216, -38.18036601460769, 60.09987470750515, 62.61161921382499 
-163.47459879173456, 9.78706689038292, 21.07386691411085, -38.52308657547314, 60.530171280276484, 62.60742679363485 
-164.3720562175923, 9.481801778325574, 21.07409956331979, -38.86125945447532, 60.96223359580089, 62.603255820616916 
-165.26984510849914, 9.179770483499937, 21.07432277778831, -39.1947169033504, 61.39602322680805, 62.59910806320729 
-166.16801115349892, 8.88104806739876, 21.07453670141627, -39.523279445569116, 61.83150141394422, 62.59498529404694 
-167.06659825995993, 8.58570904571001, 21.074741485301004, -39.84675487766138, 62.26862903202286, 62.590889288833615 
-167.96564853933944, 8.293827376251729, 21.07493728742659, -40.16493716986119, 62.70736655268539, 62.58682182515845 
-168.86520229354664, 8.005476445828418, 21.075124272345896, -40.477605254035375, 63.14767400305268, 62.582784681328896 
-169.765298001948, 7.720729056018056, 21.075302610855918, -40.78452168520086, 63.58951091988843, 62.57877963517871 
-170.66597230906274, 7.439657407901148, 21.07547247966666, -41.085431161016515, 64.03283629872682, 62.57480846286613 
-171.5672600129995, 7.16233308574536, 21.075634061064147, -41.380058881413525, 64.47760853733719, 62.57087293766167 
-172.4691940546881, 6.888827039661234, 21.075787542568005, -41.66810872794555, 64.92378537280551, 62.56697482872634 
-173.37180550796376, 6.619209567246912, 21.075933116583958, -41.9492612394345, 65.37132381140397, 62.56311589988182 
-174.27512357056273, 6.353550294242294, 21.076070980051842, -42.22317135697944, 65.82018005029249, 62.559297908373296 
-175.17917555609176, 6.0919181542148255, 21.076201334089454, -42.48946590729341, 66.27030938994771, 62.55552260362673 
-176.0839868870344, 5.834381367302144, 21.076324383632862, -42.7477407885196, 66.72166613603827, 62.55179172600149 
-176.98958108886055, 5.581007418038752, 21.076440337073507, -42.99755781702198, 67.17420348925904, 62.548107005539606 
-177.89597978530566, 5.331863032296457, 21.076549405892653, -43.238441186974576, 67.62787342139093, 62.544470160712834 
-178.80320269488791, 5.0870141533709266, 21.07665180429369, -43.46987348669182, 68.0826265355621, 62.540882897169226 
-179.71126762873226, 4.846525917248937, 21.076747748832652, -43.69129120629809, 68.53841190833911, 62.537346906479804 
179.37980951022953, 4.610462627093597, 21.07683745804763, -43.902079660230555, 68.99517691086234, 62.53386386488736 
178.47001472661313, 4.378887726987048, 21.076921152087394, -44.101567234831954, 69.45286700574347, 62.530435432057864 
177.55933593042144, 4.151863774973033, 21.076999052339726, -44.28901885546619, 69.91142551584441, 62.527063249836864 
176.64776293330098, 3.9294524154435813, 21.07707138106015, -44.46362854861503, 70.37079336033725, 62.52374894101097 
175.73528744314783, 3.7117143509171013, 21.07713836100124, -44.624510951594, 70.83090875256954, 62.52049410807673 
174.82190305699675, 3.4987093132570934, 21.077200215043298, -44.77069159499495, 71.29170685319907, 62.517300332017555 
173.90760525212946, 3.290496034383232, 21.077257165826612, -44.90109574964458, 71.75311937076401, 62.51416917109057 
172.99239137533968, 3.0871322165287896, 21.077309435386013, -45.01453558942141, 72.21507410026784, 62.51110215962414 
172.07626063029582, 2.888674502100577, 21.07735724478807, -45.109695372015615, 72.67749438840305, 62.508100806827535 
171.15921406294464, 2.6951784431996164, 21.077400813771423, -45.185114279540855, 73.14029851162476, 62.50516659561461 
170.24125454490252, 2.506698470862833, 21.07744036039079, -45.23916648716654, 73.60339895028945, 62.50230098144188 
169.32238675478553, 2.3232878640878933, 21.077476100665017, -45.27003793730335, 74.06670153834257, 62.49950539116284 
168.40261715743253, 2.1449987187051276, 21.077508248229744, -45.2756991851519, 74.53010446336619, 62.49678122189981 
167.48195398098116, 1.9718819161620043, 21.07753701399504, -45.2538735433378, 74.9934970859237, 62.49412983993411 
166.56040719176056, 1.8039870922872374, 21.077562605808513, -45.20199958227333, 75.45675853971626, 62.49155257961664 
165.63798846697043, 1.6413626061027469, 21.07758522812438, -45.11718683049995, 75.91975606464536, 62.48905074229905 
164.71471116512157, 1.4840555087529403, 21.077605081678843, -44.996163255219074, 76.38234301286255, 62.48662559528757 
163.79059029421865, 1.3321115126217802, 21.077622363172214, -44.83521277473207, 76.84435645249576, 62.48427837082033 
162.86564247767282, 1.185574960708649, 21.077637264958316, -44.63010064603174, 77.30561427393116, 62.48201026506933 
161.93988591793723, 1.04448879633476, 21.0776499747414, -44.37598406384697, 77.76591167792114, 62.479822437168174 
161.01334035786584, 0.9088945332521093, 21.077660675281177, -44.067304680960675, 78.22501689154952, 62.477716008267045 
160.08602703980335, 0.7788322262270657, 21.077669544106072, -43.69765899122488, 78.68266591478563, 62.47569206061539 
159.15796866241996, 0.6543404421705353, 21.07767675323546, -43.25964158605563, 79.13855604379587, 62.47375163667399 
158.2291893353128, 0.5354562318862894, 21.07768246891086, -42.7446551912443, 79.59233784315502, 62.47189573825717 
157.29971453140297, 0.42221510250847666, 21.077686851336747, -42.14268012647295, 80.0436051422015, 62.47012532570599 
156.36957103716497, 0.31465099069827407, 21.07769005443113, -41.441994469799695, 80.49188250420961, 62.46844131709377 
155.4387869007317, 0.21279623666879258, 21.077692225586308, -40.62883492339007, 80.93660945265879, 62.46684458746466 
154.50739137792743, 0.1166815591056579, 21.077693505440163, -39.686987537122924, 81.37712052773146, 62.465335968106075 
153.57541487628671, 0.0263360310493125, 21.07769402765811, -38.59729780392091, 81.8126199803951, 62.46391624585616 
152.64288889712603, -0.05821294319700392, 21.077693918726315, -37.33709263449277, 82.24214958872032, 62.462586162446684 
151.7098459757419, -0.13693965007160278, 21.077693297756063, -35.87951501251447, 82.66454771477538, 62.46134641388255 
150.77631961981507, -0.20982008761167042, 21.07769227629981, -34.19279048724332, 83.07839736031438, 62.46019764985841 
149.84234424610963, -0.2768319851065798, 21.077690958179183, -32.239481276206035, 83.48196075290716, 62.459140473213296 
148.90795511555993, -0.33795482149321737, 21.077689439324853, -29.975851986969737, 83.87309818254009, 62.45817543942349 
147.97318826684636, -0.39316984244247544, 21.077687807628873, -27.351590728602865, 84.24916997884603, 62.45730305613494 
147.03808044856663, -0.442460076089318, 21.077686142809426, -24.31032540948993, 84.60692371967714, 62.45652378273508 
146.10266905011392, -0.4858103473622889, 21.077684516288226, -20.791664665141543, 84.9423757341599, 62.45583802996496 
145.16699203138015, -0.5232072908721292, 21.077682991080763, -16.735847596557143, 85.25070911570788, 62.455246159572205 
144.2310878514055, -0.5546393623230781, 21.077681621699558, -12.09234452456439, 85.52623187955105, 62.45474848400482 
143.29499539610188, -0.5800968484143253, 21.07768045407043, -6.833481667562093, 85.76246697401618, 62.45434526614683 
142.35875390517904, -0.5995718752033797, 21.077679525462024, -0.9726099272503066, 85.95246822518226, 62.454036719095384 
141.42240289840888, -0.6130584149075065, 21.077678864428687, 5.417152678580645, 86.08944230328879, 62.45382300598022 
140.48598210136257, -0.6205522911235687, 21.077678490766644, 12.192165991938895, 86.16766491798984, 62.45370423982517 
139.54953137076023, -0.6220511824513419, 21.077678415483625, 19.1458715572978, 86.1835027786425, 62.45368048345233 
138.61309061957303, -0.6175546245099021, 21.077678640782036, 26.03904122874337, 86.1361848925168, 62.453751749428875 
137.67669974201874, -0.6070640103411545, 21.077679160055524, 32.64376753115328, 86.02797868891741, 62.453918000056134 
136.74039853859307, -0.5905825891994515, 21.077679957899175, 38.78254886063498, 85.86368453364595, 62.45417914740183 
135.80422664127792, -0.5681154637307517, 21.077681010133066, 44.3474225473963, 85.64968919877356, 62.454535053374464 
134.86822343906732, -0.5396695855494053, 21.077682283839383, 49.297247121029386, 85.3929605973751, 62.45498552984073 
133.93242800395075, -0.505253749225371, 21.077683737412922, 53.641638249053756, 85.10026768904692, 62.45553033878476 
132.99687901749184, -0.4648785846991234, 21.077685320624866, 57.42172683852073, 84.77771804305958, 62.45616919251016 
132.06161469813625, -0.4185565481459389, 21.07768697469994, 60.6940318679936, 84.43056709222272, 62.45690175388336 
131.12667272938248, -0.36630191131572054, 21.07768863240662, 63.51942520897987, 84.06320480291126, 62.45772763661919 
130.19209018894236, -0.30813074937878143, 21.077690218160427, 65.95667716444804, 83.67923471291411, 62.45864640560754 
129.2579034790171, -0.24406092731190318, 21.07769164814015, 68.05926842880778, 83.28158808304444, 62.45965757728069 
128.32414825780748, -0.1741120848633128, 21.07769283041671, 69.87422424842026, 82.87264132064573, 62.460760620021446 
127.39085937237361, -0.0983056201386567, 21.077693665094735, 71.44206656158465, 82.45432196964092, 62.4619549546113 
126.45807079295363, -0.016664671853948404, 21.077694044466423, 72.79731122350472, 82.02819830072966, 62.46323995471757 
125.52581554884432, 0.07078589969535011, 21.077693853177625, 73.96917959374255, 81.59555235577406, 62.46461494741996 
124.59412566594148, 0.16401953289654753, 21.07769296840591, 74.98234853403554, 81.15743831555805, 62.466079213774826 
123.66303210603063, 0.2630079862578383, 21.077691260050333, 75.85765396267426, 80.71472864368818, 62.46763198941735 
122.73256470791209, 0.367721360964102, 21.077688590932667, 76.61271347571976, 80.26815039115218, 62.4692724652004 
121.8027521304377, 0.4781281244896204, 21.077684817009903, 77.26245972671698, 79.81831372949483, 62.47099978786941 
120.87362179752883, 0.5941951352047646, 21.077679787597635, 77.81958880824692, 79.36573440756838, 62.4728130607726 
119.94519984523843, 0.7158876679116162, 21.077673345604076, 78.29493308361226, 78.91085147903041, 62.474711344605424 
119.01751107091248, 0.8431694402417056, 21.077665327774415, 78.69776935195281, 78.45404135316181, 62.47669365818891 
118.09057888449796, 0.9760026398476442, 21.07765556494522, 79.0360728613651, 77.99562898390238, 62.47875897928016 
117.16442526203812, 1.1143479523190287, 21.0776438823084, 79.31672655697122, 77.53589682534736, 62.48090624541495 
116.23907070138745, 1.2581645897520948, 21.077630099684615, 79.54569359694332, 77.07509203755643, 62.4831343547806 
115.31453418017169, 1.407410319901825, 21.077614031805506, 79.728159844178, 76.61343231573139, 62.48544216711881 
114.39083311601092, 1.5620414958446784, 21.07759548860466, 79.86865185314515, 76.15111063111759, 62.487828504656896 
113.4679833290162, 1.7220130860799423, 21.07757427551663, 79.97113485449641, 75.688299107284, 62.490292153066676 
112.54599900656409, 1.8872787049975606, 21.077550193783868, 80.03909439269212, 75.22515220596362, 62.49283186244959 
111.6248926703455, 2.057790643640578, 21.077523040771027, 80.07560457725103, 74.7618093587137, 62.49544634834739 
110.70467514567933, 2.2334999006908896, 21.077492610286182, 80.08338534427712, 74.29839715149339, 62.49813429277659 
109.78535553307508, 2.4143562136072694, 21.077458692908753, 80.06485066969681, 73.83503114674586, 62.50089434528615 
108.86694118202215, 2.6003080898460214, 21.077421076323425, 80.02214930928359, 73.37181741011852, 62.50372512403675 
107.94943766697847, 2.7913028380951, 21.07737954565984, 79.95719934604394, 72.90885379536616, 62.50662521690063 
107.03284876552462, 2.987286599454243, 21.077333883837493, 79.87171758875988, 72.44623103034883, 62.50959318258058 
106.11717643864601, 3.1882043784946403, 21.07728387191546, 79.76724467490597, 71.98403363868033, 62.51262755174726 
105.20242081309925, 3.3940000741336065, 21.077229289446386, 79.64516657749951, 71.52234072498321, 62.515726828192825 
104.2885801658163, 3.6046165102609717, 21.077169914834407, 79.50673309127518, 71.06122664647067, 62.51888949000052 
103.37565091029423, 3.819995466056252, 21.07710552569644, 79.35307377298241, 70.60076158940234, 62.52211399072809 
102.4636275849165, 4.040077705937114, 21.07703589922635, 79.1852117288803, 70.14101206561912, 62.52539876060423 
101.55250284314722, 4.26480300908195, 21.076960812561623, 79.00407557591821, 69.68204134167556, 62.52874220773665 
100.64226744553773, 4.494110198471661, 21.076880043151956, 78.81050984866557, 69.2239098109164, 62.53214271933035 
99.73291025348227, 4.727937169397527, 21.0767933691293, 78.6052840794389, 68.76667531708476, 62.53559866291491 
98.82441822465745, 4.966220917384867, 21.07670056967893, 78.38910074237633, 68.3103934366135, 62.53910838757939 
97.91677641007904, 5.20889756548409, 21.076601425410992, 78.1626022219368, 67.85511772558012, 62.54267022521355 
97.00996795270736, 5.455902390883556, 21.076495718732, 77.92637694124544, 67.40089993634155, 62.5462824917543 
96.10397408753325, 5.707169850800657, 21.07638323421601, 77.68096476490545, 66.94779020807282, 62.54994348843551 
95.19877414307454, 5.962633607610433, 21.076263758974576, 77.42686177357608, 66.49583723477645, 62.553651503040584 
94.29434554421428, 6.2222265531731065, 21.076137083025536, 77.16452449314889, 66.04508841378585, 62.55740481115591 
93.39066381631088, 6.485880832324852, 21.076002999659583, 76.89437364923404, 65.59558997733139, 62.56120167742435 
92.48770259051238, 6.7535278654980235, 21.075861305804626, 76.6167975074869, 65.14738710935984, 62.56504035679701 
91.58543361020679, 7.0250983704401, 21.075711802387072, 76.33215485172546, 64.70052404947923, 62.568919095782675 
90.68382673854215, 7.300522383002767, 21.0755542946899, 76.04077764454084, 64.25504418563443, 62.5728361336929 
89.78284996695203, 7.579729276974836, 21.075388592706684, 75.74297340896234, 63.810990136893636, 62.576789703882156 
88.88246942462303, 7.86264778293556, 21.07521451149148, 75.43902736452222, 63.36840382753441, 62.580778034981364 
87.98264938884428, 8.149206006106706, 21.075031871503786, 75.12920434662328, 62.92732655345723, 62.58479935212404 
87.08335229617991, 8.439331443184546, 21.074840498948348, 74.81375053431915, 62.487799041815876, 62.58885187816327 
86.18453875440972, 8.7329509981348, 21.074640226109242, 74.49289500837142, 62.04986150463747, 62.592933834878906 
85.2861675551848, 9.02999099693619, 21.07443089167781, 74.16685115866211, 61.61355368710374, 62.59704344417375 
84.38819568734948, 9.330377201259939, 21.074212341074038, 73.8358179576455, 61.178914911079815, 62.60117892925701 
83.49057835088249, 9.634034821075254, 21.07398442676097, 73.49998111445866, 60.74598411440194, 62.605338515814836 
82.59326897141608, 9.940888526172406, 21.073747008551635, 73.15951412252667, 60.3147998863729, 62.60952043316615 
81.69621921529408, 10.250862456597206, 21.073499953908208, 72.81457921195509, 59.885400499857596, 62.613722915402946 
80.7993790051341, 10.563880231992883, 21.07324313823293, 72.46532821666281, 59.45782394032455, 62.617944202514224 
79.90269653586427, 10.879864959846772, 21.072976445150367, 72.1119033650442, 59.03210793213749, 62.622182541492 
79.00611829120776, 11.198739242641672, 21.072699766780783, 71.75443800193487, 58.60828996236484, 62.62643618741924 
78.10958906059463, 11.520425183912906, 21.072413004003987, 71.39305724877153, 58.18640730234453, 62.6307034045379 
77.21305195648347, 11.84484439321462, 21.072116066713622, 71.02787860806056, 57.76649702721308, 62.63498246729683 
76.31644843208184, 12.171917989999793, 21.071808874061272, 70.65901251759387, 57.348596033585274, 62.639271661378146 
75.41971829945811, 12.501566606420862, 21.07149135469019, 70.28656285925386, 56.93274105554868, 62.64356928470169 
74.52279974804357, 12.833710389058936, 21.07116344695835, 69.91062742672736, 56.51896867911984, 62.64787364840633 
73.62562936352845, 13.16826899959148, 21.070825099150426, 69.53129835598662, 56.10731535529225, 62.65218307780742 
72.72814214716074, 13.505161614410081, 21.070476269678423, 69.14866252198966, 55.69781741179216, 62.656495913329955 
71.83027153546301, 13.844306923201007, 21.070116927270774, 68.76280190469282, 55.29051106364589, 62.660810511416074 
70.93194942038728, 14.185623126503534, 21.069747051149488, 68.37379392714989, 54.8854324226511, 62.66512524540699 
70.03310616993474, 14.529027932261776, 21.069366631195237, 67.98171176819145, 54.48261750583468, 62.66943850639792 
69.13367064927188, 14.874438551388161, 21.068975668099963, 67.5866246519266, 54.08210224297133, 62.673748704065936 
68.23357024238247, 15.221771692357526, 21.0685741735071, 67.18859811608755, 53.68392248322906, 62.67805426746985 
