# MEX_intpoint_lon [deg], MEX_intpoint_lat [deg], MEX_intpoint_angle [deg], TGO_intpoint_lon [deg], TGO_intpoint_lat [deg], TGO_intpoint_angle [deg] 
-139.1015039164315, 19.540593172306405, 21.62597964716646, -27.575405572040573, 42.69199184657561, 62.86334095786514 
-139.99705122159168, 19.14608473566069, 21.626563675731074, -27.871675334423696, 43.09616011751632, 62.85871532794622 
-140.89097396642126, 18.752667351209432, 21.62713612038106, -28.163191733350555, 43.50293983021636, 62.85405656818691 
-141.78337295229866, 18.36043430250132, 21.6276968207058, -28.449857062335322, 43.912279099156784, 62.849366140537306 
-142.6743474327197, 17.969478216412206, 21.62824563032878, -28.731569622544974, 44.32412560708866, 62.844645547987795 
-143.56399508995858, 17.579891085208686, 21.628782416922757, -29.008223491286344, 44.73842658054705, 62.839896334050216 
-144.45241201288314, 17.191764287661254, 21.629307062207953, -29.279708277558566, 45.15512876330189, 62.835120082190166 
-145.3396926757824, 16.805188609170816, 21.629819461933405, -29.545908863807963, 45.57417838762263, 62.83031841521001 
-146.22592991807477, 16.420254260874234, 21.630319525841468, -29.806705132958886, 45.99552114322349, 62.82549299458354 
-147.11121492477562, 16.037050897696947, 21.63080717761554, -30.061971679726774, 46.41910214374445, 62.82064551974232 
-147.995637207613, 15.655667635322121, 21.63128235481116, -30.31157750514668, 46.844865890611686, 62.81577772731381 
-148.87928458668875, 15.27619306604791, 21.63174500877064, -30.555385693173005, 47.272756234106616, 62.81089139031225 
-149.76224317259368, 14.898715273505992, 21.632195104521262, -30.793253068122063, 47.702716331459094, 62.80598831728249 
-150.64459734889198, 14.523321846215728, 21.632632620657315, -31.025029831640172, 48.13468860176404, 62.80107035139694 
-151.52642975490045, 14.150099889950486, 21.63305754920612, -31.250559177783444, 48.568614677502936, 62.79613936950701 
-152.407821268697, 13.779136038893347, 21.633469895478253, -31.469676884693428, 49.004435352433454, 62.79119728114893 
-153.28885099029924, 13.41051646556137, 21.633869677902126, -31.68221088124254, 49.442090525588874, 62.786246027504944 
-154.16959622496458, 13.044326889478494, 21.63425692784332, -31.887980786906652, 49.881519141107084, 62.78128758032084 
-155.0501324665688, 12.680652584578883, 21.634631689408767, -32.086797422996774, 50.32265912358336, 62.776323940779974 
-155.9305333810301, 12.31957838532336, 21.634994019236114, -32.278462293249454, 50.76544730861482, 62.77135713833533 
-156.81087078975057, 11.961188691513449, 21.63534398626868, -32.46276703163415, 51.209819368174315, 62.76638922949998 
-157.69121465305687, 11.605567471788161, 21.63568167151609, -32.63949281508622, 51.65570973041956, 62.76142229659717 
-158.57163305362695, 11.252798265790766, 21.636007167801164, -32.8084097387163, 52.10305149350745, 62.75645844647098 
-159.45219217989808, 10.90296418499339, 21.636320579493223, -32.969276150880724, 52.55177633294573, 62.75149980915834 
-160.3329563094576, 10.556147912169344, 21.636622022228234, -33.12183794532235, 53.00181440197088, 62.74654853652408 
-161.2139877924241, 10.212431699504094, 21.63691162261625, -33.265827807410034, 53.45309422439578, 62.74160680085947 
-162.0953470348343, 9.871897365337347, 21.637189517936424, -33.400964411315094, 53.90554257931973, 62.73667679344587 
-162.97709248205584, 9.534626289530609, 21.637455855820075, -33.52695156476868, 54.35908437703858, 62.7317607230846 
-163.85928060225376, 9.200699407455689, 21.637710793922196, -33.64347729784544, 54.81364252543232, 62.726860814594474 
-164.7419658699428, 8.870197202601844, 21.637954499581923, -33.75021289201704, 55.26913778604179, 62.72197930727795 
-165.625200749665, 8.543199697800558, 21.638187149472234, -33.84681184552049, 55.72548861897457, 62.717118453357735 
-166.5090356798369, 8.219786445069335, 21.638408929239624, -33.932908770890265, 56.182611015701845, 62.712280516385 
-167.393519056816, 7.90003651407726, 21.638620033133936, -34.00811822031804, 56.640418318723185, 62.70746776962065 
-168.27869721924145, 7.584028479237717, 21.638820663629048, -34.0720334343348, 57.0988210269832, 62.70268249439128 
-169.16461443270975, 7.271840405435366, 21.639011031034844, -34.12422500916463, 57.55772658582416, 62.69792697842157 
-170.05131287484923, 6.963549832396922, 21.63919135310094, -34.16423947798802, 58.01703916014937, 62.69320351414411 
-170.9388326208646, 6.6592337577175025, 21.6393618546128, -34.19159780128832, 58.476659389354694, 62.68851439698884 
-171.8272116296234, 6.358968618556974, 21.63952276698063, -34.20579376145264, 58.93648412245825, 62.68386192365377 
-172.716485730364, 6.062830272022952, 21.6396743278217, -34.20629225687809, 59.3964061317225, 62.679248390358275 
-173.60668861010603, 5.770893974259857, 21.639816780536634, -34.19252749102045, 59.85631380291657, 62.674676091081075 
-174.4978518018488, 5.483234358266384, 21.63995037388013, -34.16390105214231, 60.31609080021083, 62.67014731578457 
-175.39000467364647, 5.199925410465992, 21.640075361526783, -34.11977988001233, 60.775615703531955, 62.665664348627395 
-176.28317441865087, 4.921040446058589, 21.64019200163256, -34.059494116514564, 61.2347616160323, 62.66122946616682 
-177.1773860462165, 4.646652083183953, 21.640300556392408, -33.98233483810735, 61.69339573914841, 62.656844935553245 
-178.0726623741633, 4.376832215930825, 21.640401291594728, -33.88755166938542, 62.15137891253702, 62.652513012718224 
-178.9690240222955, 4.111651986228551, 21.64049447617314, -33.77435027872892, 62.60856511598942, 62.64823594055853 
-179.86648940727568, 3.851181754661372, 21.640580381756262, -33.64188975926327, 63.06480093023811, 62.644015947117374 
179.23492526104613, 3.595491070248624, 21.640659282216014, -33.489279901218964, 63.51992495339016, 62.63985524376566 
178.33520598174658, 3.3446486392371813, 21.640731453215032, -33.31557836540752, 63.97376716955523, 62.63575602338468 
177.43434096328718, 3.0987222929561185, 21.640797171753867, -33.119787772081985, 64.42614826609305, 62.63172045855219 
176.53232062221466, 2.857778954786268, 21.640856715718414, -32.90085272511773, 64.87687889579794, 62.62775069973428 
175.6291375800054, 2.6218846063010752, 21.640910363428418, -32.65765679846035, 65.3257588802802, 62.62384887348485 
174.72478665795506, 2.3911042526380633, 21.640958393187276, -32.38901952040133, 65.77257635081911, 62.620017080654414 
173.819264870019, 2.1655018871635328, 21.641001082834116, -32.09369340176253, 66.21710682307165, 62.61625739461088 
172.9125714135082, 1.9451404554961904, 21.641038709298467, -31.770361066839875, 66.65911220225972, 62.61257185947381 
172.00470765755236, 1.7300818189584855, 21.64107154815825, -31.417632561360865, 67.09833971586403, 62.60896248836447 
171.09567712924212, 1.52038671752742, 21.64109987320154, -31.034042930170315, 67.53452077147432, 62.60543126167334 
170.1854854973691, 1.316114732359248, 21.64112395599284, -30.61805017932645, 67.96736973834348, 62.60198012534788 
169.2741405536849, 1.1173242479655885, 21.64114406544432, -30.168033763229268, 68.39658265243813, 62.59861098920143 
168.36165219160796, 0.9240724141206521, 21.641160467392577, -29.68229376776381, 68.82183584645738, 62.59532572524636 
167.44803238231052, 0.7364151075819602, 21.64117342418159, -29.159050995619122, 69.2427845085074, 62.59212616605256 
166.5332951481262, 0.5544068937090841, 21.641183194252203, -28.59644820021668, 69.659061175988, 62.58901410313384 
165.61745653322473, 0.37810098806689313, 21.641190031738986, -27.992552760126948, 70.07027417490613, 62.585991285363946 
164.7005345715076, 0.20754921810170104, 21.6411941860747, -27.345361136223545, 70.47600601942722, 62.58305941742396 
163.782549251687, 0.042801984980306615, 21.641195901603012, -26.652805508391975, 70.87581179217065, 62.58022015828325 
162.86352247951785, -0.11609177431693495, 21.641195417200077, -25.91276304595918, 71.26921753271321, 62.577475119715665 
161.94347803716218, -0.26908462455668425, 21.6411929659053, -25.1230683237747, 71.65571867014033, 62.57482586485281 
161.02244153967345, -0.4161306693738229, 21.641188774561847, -24.281529450433393, 72.03477854540654, 62.572273906776374 
160.10044038859922, -0.5571855878598095, 21.641183063467448, -23.38594852124628, 72.40582708080824, 62.569820707150726 
159.17750372270817, -0.6922066705245193, 21.641176046035806, -22.434147039024285, 72.76825966701489, 62.56746767489833 
158.25366236586004, -0.8211528545383341, 21.641167928469148, -21.423996950995413, 73.1214363526906, 62.56521616491879 
157.32894877204487, -0.9439847581613825, 21.64115890944244, -20.35345791812782, 73.46468143740492, 62.56306747685371 
156.40339696763044, -1.060664714268133, 21.641149179799417, -19.220621349113163, 73.79728358464189, 62.56102285389869 
155.4770424908655, -1.1711568028764572, 21.641138922261153, -18.023761578436122, 74.11849658727729, 62.55908348166394 
154.54992232869785, -1.2754268825920263, 21.64112831114731, -16.761394328303133, 74.4275409314797, 62.55725048708515 
153.62207485097716, -1.3734426208808672, 21.641117512110554, -15.432342250379541, 74.72360631467981, 62.55552493738578 
152.69353974212157, -1.4651735230850915, 21.641106681884448, -14.035806881532517, 75.00585527661532, 62.55390783909224 
151.76435793033858, -1.5505909600995986, 21.641095968045164, -12.571445762045213, 75.27342809660229, 62.55240013710324 
150.83457151450074, -1.629668194630516, 21.641085508787395, -11.039452761945022, 75.5254490919239, 62.551002713814505 
149.90422368878512, -1.702380405959497, 21.641075432714608, -9.440638866920768, 75.761034418391, 62.54971638829975 
148.97335866519697, -1.7687047131417222, 21.641065858644062, -7.776509840016819, 75.97930142203839, 62.5485419155493 
148.04202159410582, -1.8286201965694406, 21.64105689542682, -6.049336377378201, 76.17937951904726, 62.54747998576745 
147.11025848293065, -1.882107917837307, 21.64104864178291, -4.262211722386377, 76.36042248971441, 62.54653122372876 
146.17811611312044, -1.929150937850254, 21.641041186151995, -2.4190913209078544, 76.52162196471288, 62.54569618819516 
145.2456419555817, -1.9697343331196753, 21.641034606559586, -0.5248091267532738, 76.66222176439491, 62.54497537139349 
144.312884084714, -2.0038452101988544, 21.641028970499125, 1.414934278961954, 76.78153263436644, 62.5443691985555 
143.37989109121838, -2.031472718213839, 21.641024334830004, 3.393615432283459, 76.8789468159324, 62.543878027519476 
142.44671199385098, -2.052608059451738, 21.64102074569167, 5.403965508576975, 76.95395181295024, 62.54350214839505 
141.51339615029826, -2.067244497974105, 21.641018238434004, 7.438081263307457, 77.00614268148017, 62.543241783291315 
140.57999316735348, -2.0753773662290365, 21.64101683756387, 9.487566451036598, 77.03523218674839, 62.5430970861085 
139.64655281057907, -2.077004069641738, 21.641016556708237, 11.543698181616227, 77.04105824905491, 62.54306814239353 
138.7131249136402, -2.0721240891693977, 21.641017398593487, 13.597610389290749, 77.02358823436492, 62.54315496925986 
137.77975928749714, -2.0607389818125816, 21.64101935504143, 15.64048494906315, 76.98291982600077, 62.54335751537122 
136.84650562964498, -2.042852379081471, 21.641022406981538, 17.663740222588736, 76.91927842321621, 62.54367566099002 
135.91341343358792, -2.018469983421818, 21.641026524479784, 19.65920706991643, 76.83301122779321, 62.54410921808958 
134.98053189873576, -1.987599562611438, 21.64103166678383, 21.61928358387845, 76.72457837743768, 62.54465793053048 
134.0479098409071, -1.950250942144534, 21.64103778238453, 23.53706180345954, 76.59454164395669, 62.54532147430078 
133.11559560362105, -1.9064359956272294, 21.641044809093696, 25.406422147286033, 76.44355132058894, 62.54609945781965 
132.18363697035696, -1.856168633213526, 21.64105267413813, 27.222093939685834, 76.2723319702138, 62.54699142230414 
131.2520810779549, -1.7994647881170844, 21.6410612942695, 28.979682860192547, 76.08166769652804, 62.547996842198394 
130.32097433132705, -1.7363424012395778, 21.64107057589027, 30.675668184404987, 75.87238754250147, 62.54911512566513 
129.39036231964207, -1.6668214039622022, 21.641080415195255, 32.30737415087152, 75.64535152770576, 62.55034561513817 
128.46028973413925, -1.590923699152001, 21.641090698328725, 33.87292063977377, 75.40143772327009, 62.55168758793612 
127.53080028772172, -1.5086731404396927, 21.641101301556873, 35.371158626694, 75.14153064426391, 62.55314025693536 
126.60193663646946, -1.4200955098306896, 21.641112091455337, 36.80159568051042, 74.86651112575277, 62.554702771302416 
125.67374030320546, -1.32521849371512, 21.64112292511155, 38.16431623974975, 74.57724774876887, 62.55637421728414 
124.74625160323905, -1.2240716573472574, 21.641133650341736, 39.45990066088046, 74.27458980066568, 62.55815361905505 
123.81950957240083, -1.1166864178682003, 21.64114410592212, 40.689346203795495, 73.95936169243474, 62.56003993962049 
122.89355189747471, -1.0030960159495765, 21.64115412183419, 41.853992297014834, 73.6323587128791, 62.56203208177443 
121.96841484912193, -0.8833354861389353, 21.641163519523545, 42.95545167201427, 73.29434397386858, 62.56412888911097 
121.0441332173821, -0.7574416259905319, 21.64117211217212, 43.99554830991088, 72.94604638925065, 62.56632914708792 
120.12074024982599, -0.6254529640675318, 21.64117970498336, 44.9762626200754, 72.58815952912852, 62.56863158414114 
119.19826759242414, -0.48740972690392637, 21.64118609547993, 45.8996838688032, 72.22134119807957, 62.57103487284856 
118.27674523318471, -0.3433538050162239, 21.641191073813616, 46.767969586462605, 71.84621359779653, 62.57353763114183 
117.35620144860397, -0.1933287180561777, 21.641194423087097, 47.58331148756425, 71.46336394941484, 62.57613842356466 
116.43666275296214, -0.03737957919721033, 21.641195919686925, 48.3479073219816, 71.07334546677487, 62.57883576257574 
115.5181538504866, 0.12444694115241078, 21.6411953336275, 49.06393801950506, 70.6766785878568, 62.58162810989496 
114.60069759039507, 0.2921026522160462, 21.641192428905498, 49.73354947819129, 70.27385238681168, 62.58451387789111 
113.68431492482097, 0.46553788020122294, 21.64118696386425, 50.358838366176755, 69.8653261029089, 62.58749143100943 
112.76902486961356, 0.6447015060449944, 21.641178691567674, 50.941841345951275, 69.45153073507137, 62.59055908723696 
111.85484446799681, 0.8295410034593245, 21.64116736018319, 51.484527181195695, 69.03287066139781, 62.593715119604205 
110.9417887570607, 1.020002477184886, 21.641152713373145, 51.98879124299423, 68.6097252522057, 62.596957757721384 
110.02987073705192, 1.2160307013624505, 21.641134490694252, 52.45645199015484, 68.18245045277882, 62.60028518934671 
109.11910134342095, 1.417569157932865, 21.64111242800452, 52.88924905456017, 67.75138031830721, 62.603695561985546 
108.20948942157683, 1.624560074977991, 21.641086257877, 53.28884261506804, 67.31682848863481, 62.60718698451825 
107.3010417042916, 1.8369444649172069, 21.641055710020115, 53.65681379144603, 66.87908959453615, 62.61075752885452 
106.39376279169224, 2.0546621624758403, 21.64102051170364, 53.99466583269016, 66.4384405904902, 62.61440523161259 
105.48765513376934, 2.2776518623446176, 21.64098038819007, 54.30382591177935, 65.99514201144586, 62.618128095821255 
104.5827190153285, 2.5058511564513646, 21.64093506317066, 54.58564737164233, 65.54943915300693, 62.621924092642445 
103.67895254330328, 2.739196570769117, 21.640884259205617, 54.8414122952109, 65.10156317591508, 62.625791163112616 
102.77635163634604, 2.9776236015874167, 21.64082769816781, 55.072334296327924, 64.65173213677097, 62.62972721990089 
101.87491001660753, 3.221066751176525, 21.640765101689542, 55.27956144843581, 64.20015194768513, 62.63373014908196 
100.97461920361357, 3.4694595627773968, 21.64069619161162, 55.46417928484766, 63.74701726805641, 62.63779781192125 
100.07546851014445, 3.7227346548531246, 21.640620690434293, 55.627213818439586, 63.29251233199359, 62.641928046671254 
99.17744504001945, 3.9808237545409733, 21.640538321769377, 55.769634540202084, 62.83681171506371, 62.646118670376 
98.28053368768886, 4.243657730247066, 21.640448810792986, 55.89235736561531, 62.38008104411095, 62.65036748068244 
97.38471713953233, 4.511166623329299, 21.64035188469833, 55.996247505589935, 61.922477653864014, 62.65467225765621 
96.48997587676439, 4.783279678816952, 21.640247273147907, 56.082122245024514, 61.464151193967155, 62.659030765599866 
95.5962881798451, 5.0599253751191515, 21.640134708724524, 56.15075361711386, 61.005244189940875, 62.66344075487212 
94.70363013429633, 5.341031452677015, 21.640013927380654, 56.2028709656106, 60.54589256142437, 62.667899963705125 
93.81197563782311, 5.626524941518168, 21.639884668885312, 56.23916339046926, 60.08622610087604, 62.67240612001895 
92.92129640864192, 5.9163321876748585, 21.63974667726816, 56.26028207484, 59.62636891572575, 62.67695694323038 
92.03156199491879, 6.210378878430447, 21.639599701259982, 56.26684249335019, 59.16643983678355, 62.681550146054825 
91.14273978522165, 6.508590066362026, 21.639443494729143, 56.25942650312437, 58.706552795523194, 62.68618343629896 
90.2547950198951, 6.810890192149664, 21.63927781711338, 56.238584320130435, 58.24681717267514, 62.6908545186426 
89.36769080326654, 7.117203106126158, 21.63910243384634, 56.20483638427742, 57.78733812038705, 62.69556109640772 
88.48138811659773, 7.4274520885435225, 21.63891711677839, 56.158675117284, 57.32821686004058, 62.70030087331305 
87.59584583169725, 7.741559868535673, 21.638721644591037, 56.10056657774013, 56.86955095765332, 62.70507155521225 
86.71102072511466, 8.059448641758916, 21.638515803204495, 56.03095201803266, 56.411434578643664, 62.709870851814195 
85.82686749283997, 8.381040086695116, 21.638299386177874, 55.95024934793521, 55.95395872359528, 62.714696478383296 
84.94333876543693, 8.706255379604038, 21.638072195101323, 55.858854509699206, 55.49721144652642, 62.71954615741875 
84.06038512354266, 9.035015208114656, 21.637834039979825, 55.75714276944662, 55.04127805704661, 62.72441762031059 
83.17795511367113, 9.367239783446726, 21.637584739607995, 55.645469929576144, 54.586241307670306, 62.72930860897124 
82.29599526426321, 9.702848851256592, 21.63732412193532, 55.52417346676425, 54.13218156745268, 62.734216877440836 
81.41445010192987, 10.041761701103228, 21.63705202442163, 55.39357359998416, 53.6791769830158, 62.7391401934651 
80.53326216784266, 10.383897174532235, 21.636768294382012, 55.2539742927882, 53.227303627945034, 62.74407634004423 
79.6523720342286, 10.729173671777843, 21.63647278932085, 55.10566419390708, 52.77663564145406, 62.74902311695102 
78.77171832093448, 11.077509157084437, 21.6361653772547, 54.94891752002261, 52.327245357141784, 62.75397834221747 
77.89123771202988, 11.428821162651115, 21.635845937023173, 54.78399488436873, 51.87920342259571, 62.7589398535882 
77.01086497242554, 11.783026791204282, 21.63551435858783, 54.61114407461646, 51.432578910533984, 62.763905509939335 
76.1305329644886, 12.14004271720503, 21.635170543318463, 54.430600783300534, 50.98743942211983, 62.76887319266202 
75.25017266464394, 12.499785186699457, 21.63481440426634, 54.24258929385371, 50.54385118303028, 62.773840807009066 
74.3697131799567, 12.862170015821546, 21.634445866424194, 54.04732312512933, 50.101879132812044, 62.77880628340352 
73.48908176469719, 13.227112587959883, 21.634064866972523, 53.84500563711365, 49.66158700801369, 62.78376757870864 
72.60820383689806, 13.594527849600466, 21.633671355511776, 53.63583060035968, 49.2230374195428, 62.788722677457635 
71.72700299491855, 13.964330304859635, 21.633265294280307, 53.41998273151134, 48.78629192465946, 62.79366959304255 
70.84540103403951, 14.336434008722058, 21.632846658357582, 53.19763819713381, 48.35141109398444, 62.79860636886134 
69.96331796311917, 14.710752559000452, 21.632415435852458, 52.96896508791972, 47.91845457386837, 62.80353107942213 
69.08067202134811, 15.087199087034556, 21.6319716280763, 52.73412386520479, 47.487481144441055, 62.808441831404046 
