# MEX_intpoint_lon [deg], MEX_intpoint_lat [deg], MEX_intpoint_angle [deg], TGO_intpoint_lon [deg], TGO_intpoint_lat [deg], TGO_intpoint_angle [deg] 
-139.0135595284526, 19.519464512800987, 21.566356656887788, -27.62507086923706, 43.407612783409704, 62.84810141228261 
-139.91105029977294, 19.128180772620013, 21.56693368442846, -27.93303828547085, 43.80893398846899, 62.84350553571855 
-140.80691744339632, 18.73797036588155, 21.56749934674501, -28.236443002645455, 44.21289627872503, 62.838877839809584 
-141.7012604229751, 18.348926256873195, 21.56805348522726, -28.53519095242589, 44.61944975641439, 62.834219775761724 
-142.5941771947346, 17.961140755284084, 21.56859595503382, -28.829184169535072, 45.02854413796479, 62.829532834240474 
-143.48576418295954, 17.574705537476977, 21.569126625107355, -29.11832056148373, 45.44012873221037, 62.82481854485729 
-144.3761162566794, 17.18971166684619, 21.56964537817319, -29.40249366506084, 45.85415241669233, 62.8200784756094 
-145.26532670741184, 16.806249613224843, 21.570152110721327, -29.681592388670705, 46.270563611929084, 62.815314232271916 
-146.15348722783546, 16.424409271306047, 21.57064673297203, -29.955500739532614, 46.689310253529875, 62.810527457743646 
-147.040687891271, 16.044279978045818, 21.571129168824797, -30.224097534683658, 47.11033976201508, 62.805719831345854 
-147.92701713186187, 15.665950529016223, 21.571599355791246, -30.487256094643474, 47.53359901019473, 62.800893068075325 
-148.8125617253524, 15.28950919368023, 21.572057244911562, -30.744843918511496, 47.95903428794316, 62.79604891781136 
-149.69740677037194, 14.915043729560432, 21.57250280065508, -30.99672233917237, 48.38659126419402, 62.791189164477686 
-150.5816356701425, 14.542641395275993, 21.572936000804827, -31.242746157182417, 48.8162149459639, 62.78631562515937 
-151.46533011453454, 14.172388962423634, 21.573356836326468, -31.48276325179894, 49.24784963419571, 62.78143014917587 
-152.34857006240577, 13.804372726279698, 21.57376531122167, -31.716614167495198, 49.68143887619453, 62.77653461710998 
-153.23143372416442, 13.438678515302023, 21.574161442366176, -31.944131674174315, 50.116925414407376, 62.77163093979441 
-154.11399754450764, 13.075391699411535, 21.574545259332886, -32.16514029915701, 50.55425113127674, 62.76672105725572 
-154.99633618529217, 12.714597197035014, 21.57491680420005, -32.379455828867826, 50.99335698987199, 62.76180693761697 
-155.8785225085032, 12.356379480891638, 21.57527613134503, -32.586884777983954, 51.43418296997645, 62.75689057595971 
-156.760627559294, 12.000822582507462, 21.575623307223765, -32.78722382363725, 51.87666799927745, 62.751973993146294 
-157.64272054907582, 11.648010095443114, 21.575958410136316, -32.9802592020742, 52.320749879274594, 62.747059234603164 
-158.5248688386458, 11.298025177221593, 21.576281529978846, -33.165766064978804, 52.76636520548468, 62.742148369066356 
-159.40713792134574, 10.950950549944174, 21.576592767982316, -33.34350779245054, 53.21344928148312, 62.737243487290144 
-160.2895914062528, 10.606868499584191, 21.57689223643826, -33.513235259400425, 53.66193602627749, 62.732346700719674 
-161.17229100140884, 10.265860873949624, 21.577180058412083, -33.67468605188578, 54.11175787446137, 62.72746014012936 
-162.05529649710166, 9.928009079307074, 21.577456367444178, -33.82758362964578, 54.56284566854447, 62.722585954227085 
-162.93866574921773, 9.593394075661397, 21.5777213072393, -33.97163643082545, 55.01512854279629, 62.717726308226595 
-163.82245466269165, 9.262096370686638, 21.577975031344643, -34.10653691458813, 55.46853379787833, 62.712883382388526 
-164.7067171750842, 8.93419601230599, 21.57821770281702, -34.23196053701277, 55.92298676546884, 62.70805937053169 
-165.5915052403253, 8.60977257991986, 21.578449493879575, -34.34756465535661, 56.37841066200811, 62.70325647851593 
-166.47686881266492, 8.288905174283466, 21.57867058556853, -34.45298735543721, 56.834726430607255, 62.698476922697765 
-167.36285583087988, 7.971672406036895, 21.5788811673704, -34.54784619655213, 57.291852570071335, 62.69372292836059 
-168.2495122027887, 7.6581523828929114, 21.57908143685016, -34.631736868015864, 57.74970494988499, 62.688996728120586 
-169.13688179013343, 7.348422695489895, 21.57927159927087, -34.70423175105501, 58.20819660989759, 62.684300560309744 
-170.02500639389024, 7.042560401919253, 21.57945186720527, -34.76487837947385, 58.66723754332215, 62.67963666733809 
-170.91392574007628, 6.740642010939297, 21.579622460139788, -34.813197792190294, 59.126734461527626, 62.67500729403608 
-171.80367746612396, 6.442743463889844, 21.57978360407161, -34.848682770462055, 59.58659053895817, 62.67041468597934 
-172.6942971078976, 6.148940115324268, 21.579935531099206, -34.87079595238818, 60.04670513635173, 62.665861087796635 
-173.58581808743236, 5.85930671237823, 21.5800784790069, -34.87896781710356, 60.5069735002571, 62.66134874146384 
-174.47827170147633, 5.57391737289733, 21.580212690844135, -34.87259453100983, 60.96728643665748, 62.656879884584555 
-175.3716871109232, 5.292845562348187, 21.580338414499774, -34.851035648437126, 61.42752995630517, 62.6524567486598 
-176.26609133122184, 5.016164069540748, 21.580455902272192, -34.81361165934877, 61.887584889149295, 62.648081557348355 
-177.1615092238549, 4.743944981192173, 21.58056541043562, -34.75960137713797, 62.34732646500226, 62.6437565247195 
-178.05796348897886, 4.476259655365849, 21.58066719880331, -34.68823916028334, 62.80662385733727, 62.6394838535 
-178.9554746593197, 4.213178693821918, 21.580761530288168, -34.59871196271057, 63.26533968684192, 62.63526573331726 
-179.85406109542038, 3.954771913318992, 21.58084867046129, -34.490156209248596, 63.72332948107259, 62.63110433894054 
179.24626101766327, 3.7011083159096443, 21.58092888710922, -34.361654494688835, 64.18044108626466, 62.627001828522 
178.34547767212123, 3.452256058275429, 21.5810024497902, -34.21223210780729, 64.63651402705933, 62.62296034183941 
177.44357703750546, 3.2082824201505282, 21.581069629390214, -34.040853385469816, 65.09137880961434, 62.61898199854289 
176.54054945910653, 2.9692537718859398, 21.581130697679413, -33.84641790683071, 65.54485616328499, 62.615068896406896 
175.6363874544957, 2.7352355412096574, 21.581185926869335, -33.62775654392231, 65.99675621580406, 62.61122310959017 
174.73108570813773, 2.5062921792410147, 21.581235589171644, -33.38362739293328, 66.44687759667248, 62.60744668690489 
173.82464106398257, 2.2824871258208153, 21.581279956358937, -33.112711620572334, 66.89500646332013, 62.60374165009756 
172.91705251594576, 2.0638827742215913, 21.581319299328182, -32.81360927255829, 67.34091544453717, 62.60010999214317 
172.00832119619167, 1.8505404353054544, 21.581353887667337, -32.484835106998524, 67.7843624957487, 62.59655367555481 
171.09845036113546, 1.642520301199869, 21.58138398922573, -32.124814534827216, 68.22508966095971, 62.59307463071045 
170.18744537508582, 1.4398814085642766, 21.581409869688876, -31.731879773268442, 68.66282173669572, 62.589674754199294 
169.275313691453, 1.2426816015232702, 21.581431792158035, -31.304266347249644, 69.0972648340836, 62.58635590718897 
168.362064831454, 1.0509774943445007, 21.58145001673537, -30.840110108664643, 69.52810483645928, 62.58311991381615 
167.44771036025077, 0.8648244339416927, 21.581464800114972, -30.337444985260472, 69.95500575166943, 62.57996855960188 
166.53226386046413, 0.684276462285428, 21.581476395180523, -29.794201720581693, 70.37760796070431, 62.576903589893995 
165.61574090301312, 0.5093862788061962, 21.581485050609945, -29.208207924633445, 70.7955263676308, 62.573926708338256 
164.69815901523594, 0.3402052028759355, 21.581491010487674, -28.57718982229872, 71.20834846019677, 62.57103957537996 
163.77953764625713, 0.17678313645593535, 21.581494513924998, -27.898776163241358, 71.6156322961872, 62.56824380679815 
162.85989812957288, 0.01916852699999044, 21.581495794689026, -27.170504842567894, 72.01690443789656, 62.56554097227384 
161.9392636428355, -0.1325916692972075, 21.581495080840693, -26.389832874429825, 72.4116578662257, 62.562932593994084 
161.01765916482614, -0.27845202381577283, 21.581492594382336, -25.55415045807623, 72.79934991720732, 62.56042014529421 
160.0951114296153, -0.4183686712992879, 21.581488550915324, -24.660799972621724, 73.17940029748195, 62.55800504933845 
159.17164887791856, -0.5522993450253593, 21.58148315930815, -23.707100825229983, 73.55118925159174, 62.55568867784254 
158.24730160566594, -0.6802034112670994, 21.5814766213754, -22.69038114624712, 73.91405597301812, 62.553472349838145 
157.3221013098121, -0.8020419029551047, 21.581469131568102, -21.60801735842073, 74.2672973725357, 62.551357330481586 
156.39608123142608, -0.9177775524504725, 21.58146087667583, -20.457482625070668, 74.6101673412514, 62.549344829908215 
155.4692760961075, -1.0273748233405418, 21.581452035540902, -19.236405077973817, 74.9418766707498, 62.547436002133836 
154.54172205178824, -1.1307999411707006, 21.58144277878513, -17.942636508931876, 75.26159381756808, 62.545631944004384 
153.61345660398726, -1.228020923027405, 21.581433268549475, -16.574331845372974, 75.56844672150285, 62.54393369419545 
152.68451854859723, -1.3190076058899327, 21.581423658246834, -15.1300391858896, 75.86152590382137, 62.542342232262754 
151.75494790229106, -1.4037316736709564, 21.5814140923285, -13.608799418216606, 76.13988907815438, 62.54085847774506 
150.82478583064633, -1.4821666828689237, 21.581404706064404, -12.010253466081938, 76.40256749864145, 62.53948328932018 
149.89407457409504, -1.5542880867586075, 21.58139562533754, -10.334754024464207, 76.6485742411396, 62.53821746401562 
148.96285737181555, -1.6200732580497426, 21.581386966452786, -8.583477295297012, 76.87691455837347, 62.53706173647465 
148.03117838369127, -1.6795015099475485, 21.581378835960432, -6.7585288283437555, 77.0865983641824, 62.536016778278935 
147.09908261047104, -1.73255411555327, 21.581371330494648, -4.86303626372621, 77.27665478322422, 62.535083197328255 
146.16661581227117, -1.7792143255472401, 21.581364536626985, -2.9012207782047073, 77.44614855226921, 62.534261537278425 
145.23382442556894, -1.8194673841018383, 21.581358530735315, -0.8784386098451804, 77.5941978846325, 62.53355227703811 
144.30075547884292, -1.853300542976671, 21.581353378888167, 1.1988155702519656, 77.71999322389112, 62.53295583032519 
143.36745650702102, -1.8807030737536004, 21.58134913674475, 3.322950253982257, 77.82281613676747, 62.53247254528298 
142.4339754649036, -1.9016662781746019, 21.5813458494708, 5.485367954083318, 77.90205745270903, 62.53210270415717 
141.50036063973278, -1.9161834965512168, 21.581343551670248, 7.67660609005404, 77.95723367543948, 62.53184652303377 
140.56666056308362, -1.924250114219872, 21.581342267332907, 9.886524442437205, 77.98800069228705, 62.53170415163834 
139.63292392225532, -1.9258635660235506, 21.581342009798202, 12.104531297154844, 77.99416390410627, 62.53167567319695 
138.69919947134298, -1.9210233388060494, 21.58134278173504, 14.319836420158543, 77.97568409216434, 62.53176110435864 
137.76553594217262, -1.9097309719111897, 21.581344575137738, 16.521716091330692, 77.93267861268241, 62.53196039518006 
136.8319819552817, -1.8919900556855225, 21.58134737133814, 18.69977408023218, 77.86541783451153, 62.532273429171894 
135.89858593112785, -1.8678062279890455, 21.581351141033846, 20.844182901913243, 77.77431707081969, 62.53270002340708 
134.96539600170775, -1.8371871687245935, 21.58135584433248, 22.945891867842402, 77.65992455975982, 62.53323992869083 
134.032459922765, -1.8001425924026357, 21.58136143081205, 24.996791967147168, 77.52290628598173, 62.53389282979201 
133.09982498676484, -1.7566842387640558, 21.581367839597142, 26.98983189555298, 77.3640285811014, 62.534658345735934 
132.16753793680851, -1.7068258614894551, 21.581374999451096, 28.919083945012495, 77.18413948906466, 62.535536030157594 
131.23564488165704, -1.6505832150290496, 21.581382828883786, 30.77976239581456, 76.98414983907979, 62.53652537171551 
130.30419121202794, -1.5879740395930049, 21.581391236274985, 32.56820010233487, 76.76501485330715, 62.53762579456528 
129.37322151832436, -1.5190180443471124, 21.58140012001321, 34.28179093199267, 76.52771695390082, 62.538836658892315 
128.44277950994808, -1.4437368888641255, 21.581409368649744, 35.91890660301171, 76.27325025031007, 62.54015726150303 
127.51290793634148, -1.3621541628857685, 21.581418861067668, 37.478796419927214, 76.00260700564326, 62.54158683647376 
126.5836485098972, -1.2742953644551003, 21.58142846666572, 38.96147766203141, 75.71676621721804, 62.54312455585662 
125.6550418308634, -1.180187876483459, 21.581438045556702, 40.36762319877247, 75.41668431139749, 62.54476953044125 
124.72712731436708, -1.0798609418199636, 21.58144744878016, 41.69845152477941, 75.10328785063167, 62.54652081057157 
123.79994311966668, -0.97334563689561, 21.581456518529126, 42.95562301364276, 74.77746808076188, 62.548377387016416 
122.87352608173696, -0.8606748440173215, 21.58146508839048, 44.14114491320047, 74.44007710546683, 62.550338191893175 
121.94791164527936, -0.7418832223903898, 21.581472983598804, 45.257286520021644, 74.09192545696813, 62.55240209964277 
121.02313380124106, -0.617007177950599, 21.581480021303204, 46.306505106451766, 73.7337808320406, 62.55456792805532 
120.099225025916, -0.4860848320897105, 21.581486010846877, 47.291382527508155, 73.36636777458921, 62.5568344393446 
119.17621622269128, -0.34915598936015924, 21.581490754059047, 48.214571984929, 72.9903681059381, 62.55920034127058 
118.25413666649173, -0.20626210424642571, 21.581494045558735, 49.07875413983843, 72.60642192785556, 62.561664288307874 
117.33301395096558, -0.05744624709204058, 21.581495673070208, 49.886601609158106, 72.21512904849978, 62.56422488285937 
116.41287393844424, 0.09724693072772797, 21.58149541774944, 50.6407508212825, 71.81705070603928, 62.566880676512895 
115.49374071269861, 0.2577712322969223, 21.581493054521363, 51.34378021511235, 71.41271148750432, 62.56963017134003 
114.57563653450552, 0.42407895122244654, 21.581488352427314, 51.9981938200126, 71.00260136080959, 62.57247182123445 
113.65858180002678, 0.5961209081791128, 21.581481074982246, 52.60640933455981, 70.58717775559127, 62.57540403328947 
112.74259500199621, 0.7738464878451274, 21.581470980541383, 53.170749915709095, 70.16686764351321, 62.57842516921171 
111.82769269369867, 0.9572036761377752, 21.58145782267556, 53.69343898783113, 69.74206958117266, 62.581533546770345 
110.91388945571809, 1.1461390976597765, 21.58144135055503, 54.17659747666893, 69.31315568892006, 62.584727441279384 
110.00119786542271, 1.3405980532678246, 21.58142130934103, 54.62224296275362, 68.88047354708503, 62.588005087111384 
109.08962846914736, 1.5405245576763673, 21.581397440584716, 55.03229033005063, 68.444347997562, 62.59136467924112 
108.17918975702666, 1.7458613770111686, 21.581369482632876, 55.40855355765329, 68.00508284373318, 62.59480437481667 
107.26988814042384, 1.9565500662290363, 21.581337171039905, 55.7527483650913, 67.56296244554632, 62.59832229475702 
106.36172793189598, 2.172531006322194, 21.581300238985524, 56.066495475674714, 67.11825320944058, 62.601916525373085 
105.45471132762817, 2.393743441228006, 21.581258417697633, 56.35132430795584, 66.6712049749205, 62.60558512001138 
104.54883839226575, 2.6201255143670545, 21.581211436879833, 56.608676943703635, 66.22205230107153, 62.609326100717574 
103.64410704606662, 2.851614304735311, 21.58115902514296, 56.839912252642314, 65.77101565732795, 62.61313745991864 
102.74051305429406, 3.0881458624786853, 21.581100910440117, 57.04631008048119, 65.31830252345264, 62.61701716212114 
101.83805001876365, 3.329655243881037, 21.58103682050468, 57.2290754282717, 64.86410840405455, 62.6209631456239 
100.93670937145696, 3.576076545699891, 21.580966483290535, 57.3893425686107, 64.40861776312632, 62.62497332424337 
100.03648037011057, 3.8273429387865714, 21.5808896274142, 57.52817905832085, 63.95200488408692, 62.62904558904922 
99.13735009568731, 4.083386700931203, 21.58080598259806, 57.646589618549505, 63.49443466070236, 62.63317781010864 
98.2393034516349, 4.344139248875428, 21.580715280114266, 57.745519862224675, 63.036063324071314, 62.63736783823714 
97.34232316483514, 4.609531169439472, 21.580617253228553, 57.8258598559078, 62.57703911062175, 62.64161350675429 
96.44638978814778, 4.879492249712706, 21.58051163764364, 57.88844750863424, 62.11750287579419, 62.645912633241835 
95.55148170445075, 5.153951506260688, 21.580398171941383, 57.934071784628465, 61.65758865779769, 62.650263021302855 
94.65757513208074, 5.432837213304075, 21.58027659802328, 57.96347574006086, 61.197424195531255, 62.65466246231999 
93.76464413157709, 5.716076929828687, 21.580146661548604, 57.97735938647931, 60.737131404469004, 62.65910873721038 
92.87266061363447, 6.003597525588367, 21.580008112369743, 57.97638238536197, 60.276826814023416, 62.66359961817611 
91.98159434816998, 6.295325205965898, 21.57986070496406, 57.96116657953514, 59.81662196962594, 62.66813287044801 
91.09141297441334, 6.591185535659965, 21.579704198861762, 57.93229836808795, 59.356623802504124, 62.67270625402068 
90.20208201193043, 6.891103461169009, 21.57953835906915, 57.890330931984586, 58.89693496988962, 62.67731752537767 
89.31356487249313, 7.195003332046021, 21.579362956486865, 57.83578631789427, 58.43765416816134, 62.68196443920435 
88.42582287271188, 7.502808920900637, 21.579177768322293, 57.769157387888306, 57.97887642121619, 62.68664475008721 
87.53881524734949, 7.814443442128182, 21.578982578495904, 57.69090964263703, 57.52069334616101, 62.69135621419763 
86.65249916324014, 8.129829569347283, 21.578777178040777, 57.601482925615315, 57.06319339823888, 62.69609659095861 
85.76682973373894, 8.448889451530896, 21.578561365494814, 57.501293015620796, 56.60646209673449, 62.70086364469263 
84.88176003363418, 8.77154472781741, 21.578334947285256, 57.390733114650104, 56.15058223345095, 62.70565514624919 
83.99724111445624, 9.097716540991414, 21.578097738104812, 57.27017523787943, 55.69563406520895, 62.71046887461053 
83.11322202012376, 9.427325549625468, 21.57784956127902, 57.13997151217503, 55.24169549169175, 62.715302618473785 
82.22964980287125, 9.760291938876819, 21.577590249124373, 57.00045538922347, 54.78884221984197, 62.72015417780824 
81.34646953940758, 10.096535429934852, 21.577319643296594, 56.85194277903266, 54.33714791590923, 62.725021365386304 
80.46362434726066, 10.43597528811705, 21.57703759512878, 56.69473310921681, 53.88668434615111, 62.72990200828655 
79.58105540126779, 10.77853032961346, 21.57674396595881, 56.529110315146646, 53.43752150710053, 62.73479394936767 
78.69870195017826, 11.124118926880852, 21.576438627445683, 56.35534376572499, 52.989727746232965, 62.73969504871206 
77.81650133333902, 11.472659012690405, 21.57612146187432, 56.17368912923776, 52.54336987379286, 62.744603185037555 
76.9343889974416, 11.824068082833497, 21.575792362448407, 55.98438918343495, 52.098513266472764, 62.74951625707637 
76.0522985133133, 12.178263197492585, 21.575451233570906, 55.7876745737143, 51.65522196357731, 62.75443218491962 
75.17016159274284, 12.535160981285108, 21.575097991111853, 55.58376452301497, 51.21355875624998, 62.75934891132696 
74.28790810533684, 12.89467762199021, 21.574732562663097, 55.37286749677719, 50.773585270289736, 62.76426440299954 
73.40546609540951, 13.2567288679695, 21.574354887779545, 55.155181826088366, 50.33536204303928, 62.76917665181569 
72.52276179891595, 13.621230024294158, 21.57396491820669, 54.93089629191566, 49.898948594785764, 62.774083676028376 
71.63971966044492, 13.988095947592555, 21.57356261809411, 54.700190673118, 49.464403495076006, 62.77898352142305 
70.75626235029519, 14.357241039633493, 21.573147964194394, 54.46323626073858, 49.031784424315326, 62.78387426243548 
69.87231078166614, 14.728579239661807, 21.572720946047678, 54.2201963408986, 48.601148230986375, 62.78875400322854 
68.98778412800138, 15.102024015504183, 21.572281566151002, 53.9712266484468, 48.1725509847972, 62.79362087872706 
