# MEX_intpoint_lon [deg], MEX_intpoint_lat [deg], MEX_intpoint_angle [deg], TGO_intpoint_lon [deg], TGO_intpoint_lat [deg], TGO_intpoint_angle [deg] 
-138.42201052013866, 19.37260855601389, 21.177071949579986, -27.72444840118069, 47.99094300318352, 62.75280368656295 
-139.33189985216967, 19.00286366814373, 21.177603362238173, -28.12176589604589, 48.368597925441364, 62.74852484364893 
-140.2401822453348, 18.634077588056176, 21.178124800225632, -28.516113311540607, 48.74900192134023, 62.74422257165876 
-141.14694822417331, 18.266340872128, 21.178636116713328, -28.907436110576352, 49.13211703026962, 62.739898214244676 
-142.05228706548888, 17.89974344253481, 21.179137176954026, -29.295677345120396, 49.51790518472698, 62.735553144345026 
-142.9562867672366, 17.534374603361247, 21.179627858297962, -29.68077749266996, 49.90632820655784, 62.73118876371897 
-143.8590340188237, 17.17032305602615, 21.180108050193745, -30.062674282031196, 50.297347802441784, 62.726806502445385 
-144.76061417270176, 16.807676913982718, 21.180577654174915, -30.441302507543156, 50.6909255585816, 62.72240781838671 
-145.66111121713547, 16.44652371665537, 21.181036583831816, -30.81659383080655, 51.08702293454974, 62.71799419661728 
-146.56060775004062, 16.08695044257794, 21.181484764769138, -31.188476568888447, 51.48560125624084, 62.71356714881736 
-147.45918495379297, 15.72904352169911, 21.18192213454913, -31.556875467876488, 51.886621707874056, 62.70912821263188 
-148.3569225709157, 15.372888846823592, 21.1823486426205, -31.921711460547094, 52.29004532298397, 62.70467895099576 
-149.25389888056162, 15.01857178415909, 21.182764250233344, -32.28290140679263, 52.69583297433128, 62.70022095142498 
-150.1501906757137, 14.666177182940908, 21.183168930340017, -32.64035781531954, 53.10394536265875, 62.6957558252742 
-151.0458732410341, 14.315789384108058, 21.183562667482256, -32.993988544981015, 53.51434300420883, 62.69128520696191 
-151.94102033129946, 13.967492228005975, 21.183945457664674, -33.34369648394449, 53.92698621691171, 62.68681075316274 
-152.8357041503665, 13.62136906109308, 21.184317308214844, -33.689379204710754, 54.34183510514153, 62.682334141968205 
-153.72999533062017, 13.277502741629455, 21.184678237630145, -34.03092859279895, 54.7588495429289, 62.67785707201606 
-154.62396291286083, 12.935975644328112, 21.18502827541162, -34.36823044668376, 55.17798915550429, 62.67338126158914 
-155.51767432659636, 12.596869663950256, 21.185367461885104, -34.70116404631911, 55.59921329903404, 62.66890844768394 
-156.41119537070875, 12.260266217827963, 21.185695848009846, -35.02960168729809, 56.02248103839487, 62.66444038505031 
-157.3045901944729, 11.926246247298842, 21.18601349517488, -35.353408177383166, 56.447751122815646, 62.65997884520238 
-158.19792127891031, 11.594890218039206, 21.18632047498348, -35.67244029178453, 56.87498195919545, 62.65552561540174 
-159.09124941846687, 11.266278119283351, 21.18661686902601, -35.98654618316641, 57.30413158288546, 62.65108249761372 
-159.9846337030094, 10.940489461918531, 21.186902768641367, -36.295564741912955, 57.73515762569683, 62.64665130743754 
-160.87813150014114, 10.617603275446584, 21.18717827466752, -36.59932490168137, 58.168017280869556, 62.64223387301113 
-161.77179843784293, 10.29769810380473, 21.187443497181295, -36.897644884702245, 58.602667264705026, 62.637832033892025 
-162.66568838745042, 9.98085200004005, 21.187698555227932, -37.19033138064618, 59.039063774529545, 62.633447639914436 
-163.55985344698428, 9.667142519833378, 21.187943576540672, -37.47717865215239, 59.47716244261561, 62.62908255002409 
-164.45434392485492, 9.356646713870603, 21.188178697250795, -37.75796755929567, 59.91691828564115, 62.62473863109213 
-165.34920832396833, 9.04944111906069, 21.188404061588464, -38.03246449434059, 60.358285649215034, 62.62041775670792 
-166.24449332626352, 8.745601748601988, 21.18861982157485, -38.30042021707931, 60.80121814693673, 62.616121805953526 
-167.14024377771796, 8.445204080900039, 21.188826136705835, -38.56156857985287, 61.24566859339011, 62.61185266215934 
-168.03650267386053, 8.148323047342139, 21.18902317362783, -38.81562512999502, 61.69158893039284, 62.60761221164323 
-168.9333111458364, 7.855033018936084, 21.189211105806088, -39.062285575886605, 62.138930145733546, 62.60340234243365 
-169.8307084470718, 7.565407791822288, 21.189390113185883, -39.30122410103793, 62.587642183525766, 62.59922494297822 
-170.72873194059068, 7.279520571670894, 21.189560381847215, -39.53209150859314, 63.03767384518944, 62.59508190083895 
-171.62741708703837, 6.997443956977726, 21.189722103653207, -39.75451317633426, 63.488972679934385, 62.590975101375356 
-172.52679743347085, 6.719249921274938, 21.189875475892897, -39.968086799606816, 63.94148486346259, 62.586906426416576 
-173.42690460297183, 6.4450097942746805, 21.190020700918808, -40.17237989653997, 64.39515506342389, 62.58287775292414 
-174.32776828516106, 6.174794241966705, 21.190157985779734, -40.36692704642783, 64.84992628994843, 62.57889095164625 
-175.22941622766155, 5.908673245692777, 21.190287541849333, -40.55122682810216, 65.30573972933357, 62.57494788576542 
-176.13187422859446, 5.64671608022371, 21.19040958445088, -40.72473842047048, 65.76253455867742, 62.5710504095403 
-177.03516613017229, 5.38899129086711, 21.1905243324788, -40.88687782201871, 66.22024773891714, 62.56720036694352 
-177.93931381346343, 5.135566669636448, 21.190632008017445, -41.03701363986187, 66.67881378334098, 62.563399590296605 
-178.84433719440142, 4.886509230514808, 21.19073283595748, -41.17446239173105, 67.13816449818542, 62.559649898903594 
-179.75025422111344, 4.64188518384917, 21.190827043610682, -41.298483255946095, 67.59822869139236, 62.55595309768443 
179.34291912735662, 4.401759909913714, 21.19091486032332, -41.40827219474889, 68.05893184497006, 62.55231097581031 
178.435168840855, 4.166197931683186, 21.190996517088845, -41.502955365138824, 68.52019574565577, 62.54872530534122 
177.5264828763806, 3.935262886860216, 21.191072246160388, -41.581581718300924, 68.98193806769787, 62.54519783986838 
176.61685115472778, 3.7090174992026883, 21.191142280663396, -41.64311467354512, 69.44407190053103, 62.541730313162134 
175.70626555543657, 3.4875235492002834, 21.191206854209167, -41.68642273504079, 69.9065052128785, 62.53832443782711 
174.79471990997817, 3.2708418441514424, 21.191266200509588, -41.71026889913496, 70.36914024334119, 62.53498190396606 
173.88220999310576, 3.0590321876948154, 21.19132055299373, -41.713298676245145, 70.83187280577317, 62.53170437785394 
172.96873351230226, 2.852153348851398, 21.191370144426642, -41.69402652372415, 71.29459149564204, 62.52849350062325 
172.05429009526048, 2.6502630306361477, 21.19141520653103, -41.65082045417277, 71.75717678105578, 62.525350886962634 
171.13888127533338, 2.4534178383000107, 21.19145596961219, -41.58188454687517, 72.2194999591193, 62.52227812382996 
170.22251047489553, 2.2616732472653545, 21.19149266218671, -41.48523904780702, 72.68142195465958, 62.51927676918111 
169.30518298656187, 2.075083570820051, 21.19152551061549, -41.35869769555529, 73.14279193399825, 62.51634835071623 
168.3869059522132, 1.8937019276372664, 21.19155473874147, -41.199841856194794, 73.60344570120343, 62.513494364644515 
167.46768833978314, 1.7175802091896386, 21.191580567532608, -41.00599098973441, 74.06320383793467, 62.510716274469516 
166.54754091776633, 1.5467690471284163, 21.19160321473058, -40.77416890481258, 74.5218695403877, 62.50801550979534 
165.62647622741324, 1.381317780699285, 21.191622894505652, -40.501065188517686, 74.97922609769844, 62.50539346515644 
164.7045085525829, 1.221274424268042, 21.191639817118094, -40.182991127779296, 75.435033945187, 62.502851498870974 
163.78165388723104, 1.0666856350303124, 21.19165418858678, -39.81582937352226, 75.8890272126944, 62.50039093192015 
162.85792990051812, 0.9175966809802426, 21.191666210365213, -39.39497654848514, 76.34090967265254, 62.49801304685421 
161.9333558995275, 0.7740514092138523, 21.191676079025438, -38.915277980198674, 76.79034997411676, 62.49571908672659 
161.00795278959302, 0.6360922146429999, 21.191683985950476, -38.37095377733649, 77.23697602754454, 62.49351025405746 
160.08174303224078, 0.5037600091963068, 21.191690117035307, -37.75551559973767, 77.68036838058295, 62.49138770982779 
159.15475060075872, 0.37709419158290497, 21.19169465239713, -37.061673759896756, 78.12005239787253, 62.48935257250543 
158.22700093341464, 0.2561326176949314, 21.191697766095086, -36.281234827096284, 78.55548902892924, 62.4874059171036 
157.29852088435203, 0.14091157172373167, 21.19169962585996, -35.40499081881683, 78.98606391979217, 62.48554877427415 
156.36933867220012, 0.03146573806421722, 21.191700392834036, -34.42260255309523, 79.41107460061838, 62.483782129435255 
155.43948382644345, -0.07217182591985219, 21.191700221321668, -33.322482078455245, 79.82971547036765, 62.482106921935824 
154.50898713160345, -0.16996971619765974, 21.19169925855067, -32.091682679102355, 80.2410603139367, 62.48052404425676 
153.57788056929363, -0.26189820737056246, 21.19169764444501, -30.7158102789695, 80.64404214726918, 62.47903434125056 
152.64619725821677, -0.3479292769005453, 21.191695511409115, -29.17897776022282, 81.03743032430981, 62.47763860941978 
151.71397139218124, -0.4280366282023907, 21.191692984123844, -27.46383443564693, 81.41980510430612, 62.47633759623574 
150.78123817622046, -0.502195712536192, 21.191690179354715, -25.55171717730036, 81.7895303369279, 62.47513199949759 
149.8480337609076, -0.5703837496398748, 21.19168720577244, -23.422987403906166, 82.14472566491318, 62.474022466733445 
148.91439517496428, -0.6325797470442956, 21.191684163786018, -21.057637693110628, 82.48324077116571, 62.473009594643116 
147.98036025626868, -0.6887645180168294, 21.19168114538871, -18.436268737199626, 82.80263579559445, 62.472093928584684 
147.04596758137643, -0.7389206980827561, 21.19167823401694, -15.541542359237738, 83.10017412171055, 62.47127596210369 
146.11125639367106, -0.7830327600776742, 21.19167550442254, -12.36019328101243, 83.37283608756289, 62.47055613650733 
145.1762665302693, -0.821087027687789, 21.191673022558188, -8.885608699126054, 83.61736423401064, 62.46993484048274 
144.2410383478096, -0.8530716874394801, 21.19167084547658, -5.120837522258262, 83.83035133116722, 62.469412409760906 
143.30561264725836, -0.8789767991033923, 21.191669021243065, -1.081663854573289, 84.00837991906933, 62.46898912682579 
142.3700305978713, -0.8987943044830597, 21.191667588862213, 3.2008900106632026, 84.14821465504451, 62.468665220669564 
141.43433366045195, -0.9125180345626155, 21.191666578218157, 7.679469267842274, 84.24703567420008, 62.46844086659405 
140.4985635100518, -0.9201437149926255, 21.191666010028943, 12.291510781694166, 84.30268456242655, 62.4683161860588 
139.562761958259, -0.9216689698982676, 21.191665895814854, 16.96299717430851, 84.31388035796147, 62.4682912465754 
138.6269708752243, -0.9170933239985273, 21.191666237880835, 21.614513560939276, 84.28035937539391, 62.46836606164912 
137.69123211157446, -0.9064182030303711, 21.19166702931294, 26.168478902627076, 84.20290507737657, 62.46854059076713 
136.75558742036316, -0.8896469324766063, 21.191668253988933, 30.555972022984566, 84.08326041124336, 62.4688147394336 
135.82007837920952, -0.8667847346010669, 21.1916698866029, 34.721731289233766, 83.92394450149698, 62.469188359251746 
134.88474631277424, -0.8378387237999484, 21.19167189270389, 38.626582587924176, 83.72801577341038, 62.469661248052724 
133.94963221572044, -0.8028179002827245, 21.19167422874863, 42.247368434639505, 83.49882769932361, 62.47023315007062 
133.0147766763059, -0.761733142101092, 21.191676842168043, 45.57503880353719, 83.23981346390202, 62.470903756164574 
132.0802198007492, -0.714597195549123, 21.191679671447694, 48.61176750800534, 82.9543194891915, 62.47167270408634 
131.14600113851017, -0.6614246639623801, 21.19168264622183, 51.36784842787413, 82.64549241126093, 62.47253957879385 
130.2121596086204, -0.6022319949484412, 21.191685687381213, 53.858871357011054, 82.31621378755592, 62.47350391281018 
129.27873342719516, -0.5370374660853849, 21.191688707194157, 56.10342020290943, 81.96907203429876, 62.474565186627586 
128.34576003625406, -0.4658611691293128, 21.191691609441104, 58.12134780965481, 81.60636039286584, 62.47572282915554 
127.41327603397092, -0.38872499277572725, 21.19169428956213, 59.93257364321409, 81.23009124807751, 62.476976218213174 
126.48131710646872, -0.3056526040236524, 21.191696634817465, 61.556305342043245, 80.8420194313322, 62.478324681064535 
125.54991796126849, -0.21666942819485044, 21.19169852446071, 63.01057858918887, 80.44366939977171, 62.4797674949969 
124.61911226249434, -0.12180262766393884, 21.19169982992448, 64.31202229254343, 80.03636302759504, 62.48130388794067 
123.68893256793052, -0.021081079358281626, 21.19170041501835, 65.47577513125506, 79.62124610061291, 62.48293303913062 
122.75941026801794, 0.08546464891032905, 21.191700136138707, 66.51549849534733, 79.19931252711761, 62.48465407980742 
121.83057552687124, 0.19780232321792182, 21.191698842490364, 67.44344690559832, 78.7714258664721, 62.486466093958704 
120.90245722538923, 0.31589806933747416, 21.19169637631949, 68.27056945427593, 78.33833812876757, 62.48836811909875 
119.97508290652316, 0.43971639951600755, 21.19169257315769, 69.00662493496222, 77.9007059932062, 62.49035914708577 
119.0484787227606, 0.5692202401488337, 21.191687262076844, 69.6602997554668, 77.45910468720483, 62.49243812497603 
118.12266938587301, 0.7043709602784806, 21.191680265954343, 70.23932211014062, 77.0140398021953, 62.494603955913405 
117.19767811896874, 0.8451284008447049, 21.191671401748483, 70.7505687944588, 76.56595732166826, 62.49685550005384 
116.27352661088374, 0.9914509046107696, 21.191660480783458, 71.20016291984622, 76.11525211851335, 62.49919157552292 
115.35023497293497, 1.1432953466906255, 21.19164730904381, 71.59356195889836, 75.66227515206103, 62.50161095940617 
114.42782169805409, 1.3006171656009933, 21.191631687477763, 71.93563625442448, 75.20733956618514, 62.50411238877035 
113.50630362230983, 1.463370394762206, 21.191613412309135, 72.23073852249794, 74.75072586153323, 62.50669456171471 
112.58569588882209, 1.6315076943716922, 21.191592275357372, 72.48276508034647, 74.29268628898653, 62.509356138451125 
111.66601191406131, 1.8049803835741598, 21.191568064365324, 72.69520960830113, 73.83344858845493, 62.512095742411546 
110.7472633565215, 1.9837384728532674, 21.19154056333428, 72.87121025977868, 73.37321917720448, 62.51491196138185 
109.82946008774712, 2.1677306965700534, 21.191509552865885, 73.01359089594087, 72.91218587493991, 62.517803348660436 
108.9126101656885, 2.356904545574533, 21.191474810510403, 73.12489716235618, 72.4505202385354, 62.52076842424039 
107.99671981035429, 2.551206299817923, 21.191436111120947, 73.20742805621354, 71.98837956729584, 62.52380567601381 
107.08179338172285, 2.750581060894371, 21.191393227213187, 73.26326356198277, 71.52590862960504, 62.52691356099714 
106.16783335987043, 2.954972784442522, 21.19134592933003, 73.29428886526, 71.06324115347527, 62.53009050657571 
105.25484032726779, 3.1643243123390183, 21.191293986410827, 73.3022155912243, 70.60050111657799, 62.53333491176628 
104.34281295319335, 3.3785774046177637, 21.191237166164573, 73.28860045673278, 70.13780386557931, 62.536645148496504 
103.43174798020561, 3.5976727710509016, 21.191175235446746, 73.25486167390011, 69.67525708982024, 62.540019562899076 
102.52164021261525, 3.821550102329393, 21.191107960639055, 73.20229339788983, 69.2129616704075, 62.54345647662013 
101.61248250689282, 4.050148100783394, 21.191035108031873, 73.13207847219826, 68.75101242247386, 62.54695418813955 
100.70426576394532, 4.283404510584991, 21.190956444208563, 73.04529969041803, 68.28949874561063, 62.55051097410223 
99.7969789231931, 4.521256147377992, 21.190871736431472, 72.94294976378112, 67.82850519517683, 62.55412509065883 
98.89060895837541, 4.763638927282267, 21.190780753028868, 72.8259401581482, 67.36811198526605, 62.55779477481428 
97.9851408750124, 5.010487895222324, 21.190683263782436, 72.69510894202499, 66.90839543250213, 62.56151824578305 
97.08055770944894, 5.261737252532647, 21.190579040314798, 72.55122776817183, 66.44942834848277, 62.565293706348996 
96.17684052940619, 5.517320383794606, 21.19046785647646, 72.39500809501735, 65.99128038755364, 62.56911934422948 
95.27396843596503, 5.7771698828626885, 21.190349488731854, 72.22710674001459, 65.5340183556359, 62.57299333344082 
94.37191856690663, 6.041217578040087, 21.190223716543787, 72.04813084497145, 65.07770648502144, 62.57691383566525 
93.47066610133479, 6.309394556366659, 21.19009032275591, 71.85864232296316, 64.6224066793632, 62.58087900161658 
92.57018426550626, 6.5816311869844615, 21.189949093972643, 71.65916184745357, 64.16817873250679, 62.5848869724042 
91.6704443397956, 6.857857143549066, 21.189799820936077, 71.45017243650742, 63.71508052431391, 62.58893588089328 
90.77141566672303, 7.138001425657213, 21.18964229889938, 71.23212267828889, 63.263168196206436, 62.593023853060345 
89.87306565997496, 7.4219923792638065, 21.18947632799616, 71.00542963826311, 62.812496308799744, 62.5971490093423 
88.97535981434962, 7.709757716064064, 21.18930171360534, 70.77048148351467, 62.36311798368443, 62.60130946597822 
88.07826171656187, 8.001224531818727, 21.189118266711056, 70.52763985526396, 61.91508503115185, 62.60550333634207 
87.18173305684398, 8.296319323603004, 21.1889258042571, 70.2772420168993, 61.46844806542991, 62.60972873226511 
86.28573364128286, 8.594968005961823, 21.188724149495442, 70.01960280157503, 61.02325660880071, 62.613983765346994 
85.39022140483584, 8.897095925956835, 21.188513132328325, 69.75501638057999, 60.57955918580097, 62.61826654825408 
84.49515242497235, 9.202627877092228, 21.188292589643616, 69.48375787120125, 60.13740340856074, 62.62257519600352 
83.60048093589053, 9.51148811210919, 21.188062365642736, 69.20608480064335, 59.69683605420796, 62.62690782723252 
82.70615934326344, 9.823600354640487, 21.187822312161, 68.92223844067087, 59.257903135156695, 62.63126256545096 
81.81213823947232, 10.13888780971889, 21.187572288979748, 68.63244502598562, 58.820649963000896, 62.63563754027655 
80.91836641928903, 10.457273173135377, 21.187312164129875, 68.33691686789636, 58.38512120665105, 62.64003088865119 
80.0247908959746, 10.778678639644443, 21.187041814186486, 68.03585337356422, 57.95136094527952, 62.64444075603797 
79.13135691776455, 11.10302591001644, 21.18676112455412, 67.7294419799842, 57.519412716574465, 62.64886529759674 
78.23800798471765, 11.430236196937884, 21.186469989742196, 67.41785901087579, 57.089319560748265, 62.6533026793384 
77.3446858659084, 11.76023022976331, 21.18616831363042, 67.10127046378359, 56.66112406069521, 62.65775107925587 
76.45133061694997, 12.092928258123141, 21.185856009723654, 66.77983273392, 56.23486837865183, 62.66220868843162 
75.55788059783832, 12.428250054394463, 21.18553300139597, 66.45369328060013, 55.81059428967318, 62.66667371212003 
74.66427249111489, 12.766114915042602, 21.185199222123526, 66.1229912415172, 55.388343212206806, 62.671144370804434 
73.77044132034986, 13.106441660843505, 21.184854615705984, 65.78785799957075, 54.968156236014636, 62.67561890122753 
72.87632046895409, 13.44914863599822, 21.184499136476106, 65.44841770648596, 54.550074147667864, 62.68009555739418 
71.98184169933401, 13.79415370615237, 21.184132749497316, 65.10478776703891, 54.13413745381632, 62.6845726115465 
71.08693517240887, 14.14137425533523, 21.183755430748807, 64.75707928732714, 53.720386402412835, 62.689048355109705 
70.19152946751728, 14.490727181834233, 21.183367167298176, 64.40539749018897, 53.308861002055366, 62.69352109960838 
69.29555160274442, 14.842128893022663, 21.18296795746098, 64.04984210057559, 52.89960103959255, 62.697989177552515 
68.39892705570973, 15.195495299159367, 21.182557810947404, 63.69050770341209, 52.4926460961246, 62.702450943292675 
