# MEX_intpoint_lon [deg], MEX_intpoint_lat [deg], MEX_intpoint_angle [deg], TGO_intpoint_lon [deg], TGO_intpoint_lat [deg], TGO_intpoint_angle [deg] 
-139.1499410594715, 19.552137148100023, 21.65899398389311, -27.54606074921234, 42.29485117899667, 62.8718341745284 
-140.04440729235307, 19.15585148003892, 21.65958189034237, -27.83605954669109, 42.70052005026718, 62.867194201667246 
-140.93724863442273, 18.76066669275323, 21.66015809114792, -28.121204899929662, 43.10878282927702, 62.86252037264213 
-141.82856662380198, 18.366676241059487, 21.660722424902783, -28.4013973281889, 43.519586525443444, 62.857814154701394 
-142.71846122827233, 17.973972922075664, 21.661274744381743, -28.67653331790169, 43.932877691361526, 62.85307705700899 
-143.6070308226046, 17.58264889772268, 21.661814916556438, -28.94650509124368, 44.3486023968716, 62.848310630122924 
-144.49437216701688, 17.19279571625508, 21.66234282259342, -29.211200361990997, 44.7667062009877, 62.84351646542337 
-145.3805803866174, 16.804504332785196, 21.66285835783503, -29.470502077833434, 45.18713412156018, 62.838696194490964 
-146.26574895170094, 16.417865128766866, 21.663361431763366, -29.72428814825308, 45.60983060253641, 62.83385148843563 
-147.1499696587754, 16.032967930406972, 21.663851967947263, -29.972431157014423, 46.03473947867105, 62.8289840571759 
-148.03333261220772, 15.649902025974793, 21.664329903972465, -30.21479805824546, 46.46180393752566, 62.82409564866941 
-148.91592620638525, 15.268756181980903, 21.664795191355147, -30.451249855016574, 46.89096647858367, 62.819188048094816 
-149.79783710830068, 14.889618658199167, 21.665247795438884, -30.68164125924759, 47.32216886929224, 62.814263076985796 
-150.67915024047636, 14.512577221506337, 21.665687695275206, -30.905820331690943, 47.75535209782618, 62.80932259231734 
-151.55994876415238, 14.137719158516223, 21.66611488348806, -31.123628100651725, 48.19045632235215, 62.80436848554543 
-152.44031406267325, 13.765131286985593, 21.666529366122223, -31.334898158012297, 48.62742081655196, 62.79940268159998 
-153.32032572501424, 13.394899965971437, 21.666931162476036, -31.539456231030318, 49.06618391114338, 62.794427137832734 
-154.20006152939834, 13.027111104719612, 21.66732030491851, -31.737119728274028, 49.506682931114184, 62.78944384291974 
-155.07959742696139, 12.661850170266998, 21.667696838691377, -31.927697257947877, 49.948854128360466, 62.78445481572042 
-155.9590075254327, 12.299202193739733, 21.668060821696017, -32.11098811674409, 50.39263260939398, 62.77946210409272 
-156.83836407280302, 11.939251775332274, 21.668412324265805, -32.28678174723249, 50.83795225775312, 62.774467783666516 
-157.71773744096265, 11.582083087952478, 21.668751428924118, -32.45485716167129, 51.284745650721575, 62.769473956575425 
-158.59719610929642, 11.227779879519872, 21.669078230128328, -32.61498232998606, 51.732943969922566, 62.76448275014829 
-159.4768066482317, 10.876425473905124, 21.669392834000067, -32.76691352952338, 52.18247690532018, 62.7594963155615 
-160.35663370274142, 10.528102770500519, 21.66969535804238, -32.91039465403978, 52.6332725521171, 62.75451682645291 
-161.23673997581045, 10.182894242412445, 21.669985930843737, -33.04515647923741, 53.08525729999339, 62.74954647749897 
-162.11718621188126, 9.840881933268257, 21.67026469176978, -33.17091588200512, 53.53835571408271, 62.74458748295601 
-162.9980311803002, 9.502147452631887, 21.670531790642773, -33.28737501037101, 53.99249040702821, 62.739642075166785 
-163.8793316587924, 9.166771970023632, 21.670787387409554, -33.39422040102026, 54.447581901403396, 62.73471250303408 
-164.76114241699926, 8.83483620754178, 21.671031651798156, -33.49112204108452, 54.90354848171988, 62.729801030462255 
-165.64351620011837, 8.50642043108499, 21.67126476296371, -33.577732370768665, 55.36030603517606, 62.72490993476826 
-166.52650371269115, 8.181604440176773, 21.671486909124102, -33.653685223253575, 55.81776788022654, 62.72004150506389 
-167.41015360258947, 7.860467556394799, 21.671698287185734, -33.718594698203795, 56.2758445819724, 62.71519804061013 
-168.29451244525725, 7.543088610410321, 21.671899102360022, -33.77205396512489, 56.734443753285596, 62.710381849145975 
-169.1796247282686, 7.229545927644853, 21.67208956777112, -33.81363399276589, 57.19346984048766, 62.7055952451923 
-170.0655328362688, 6.919917312553502, 21.672269904055295, -33.84288220075831, 57.65282389230247, 62.70084054833356 
-170.9522770363689, 6.614280031546876, 21.672440338952562, -33.859321029738574, 58.11240331069533, 62.696120081477865 
-171.8398954640694, 6.312710794565802, 21.67260110689112, -33.86244642633243, 58.572101582095556, 62.69143616909783 
-172.72842410979226, 6.015285735325688, 21.672752448565053, -33.85172623960848, 59.031807987377334, 62.68679113545392 
-173.61789680610502, 5.722080390249872, 21.672894610506013, -33.826598525958396, 59.491407288844826, 62.682187302801644 
-174.5083452157237, 5.4331696761144235, 21.673027844649198, -33.78646975986415, 59.95077939233073, 62.67762698958488 
-175.3997988203846, 5.148627866429119, 21.67315240789447, -33.73071294870494, 60.409798982376685, 62.67311250861683 
-176.29228491067866, 4.868528566582769, 21.67326856166297, -33.6586656506822, 60.868335128317085, 62.66864616525083 
-177.1858285769432, 4.592944687783806, 21.673376571449925, -33.569627896154934, 61.32625085893951, 62.66423025554233 
-178.08045270131043, 4.321948419830051, 21.673476706374267, -33.46286001424198, 61.78340270324646, 62.65986706440482 
-178.97617795101084, 4.055611202744885, 21.67356923872545, -33.33758036854192, 62.239640194697536, 62.65555886376106 
-179.87302277303436, 3.7940036973202016, 21.673654443508322, -33.19296300833341, 62.69480533617446, 62.65130791069134 
179.22899660975023, 3.537195754609651, 21.673732597986504, -33.02813524475948, 63.14873202278902, 62.647116445581936 
178.3298662009131, 3.2852563844189806, 21.673803981224875, -32.84217516539395, 63.601245419554004, 62.64298669027426 
177.42957423111756, 3.0382537228437556, 21.673868873631783, -32.63410910538646, 64.05216129086983, 62.638920846217935 
176.52811115700638, 2.7962549989076737, 21.673927556501557, -32.40290909925735, 64.50128527875823, 62.63492109262935 
175.62546965822057, 2.559326500358408, 21.673980311558076, -32.14749034456425, 64.94841212681548, 62.63098958465756 
174.72164463244948, 2.3275335386807767, 21.67402742049965, -31.866708717315746, 65.3933248469818, 62.62712845156018 
173.8166331884152, 2.1009404133906404, 21.67406916454622, -31.559358389421252, 65.83579382645549, 62.62333979489071 
172.91043463669502, 1.879610375675746, 21.674105823989144, -31.224169610922452, 66.27557587245491, 62.6196256866998 
172.00305047829048, 1.663605591453181, 21.674137677744366, -30.85980673456079, 66.71241319308123, 62.61598816775236 
171.09448439085415, 1.4529871039158884, 21.674165002909422, -30.464866577721818, 67.14603231331371, 62.61242924576263 
170.18474221248962, 1.2478147956436665, 21.67418807432495, -30.037877237291227, 67.57614292622794, 62.60895089364908 
169.27383192304515, 1.0481473503568672, 21.67420716414123, -29.57729749677532, 68.00243668093373, 62.60555504781162 
168.36176362282714, 0.8540422143937312, 21.674222541390375, -29.081516992449302, 68.42458591056264, 62.60224360643264 
167.4485495086647, 0.6655555579945404, 21.674234471564674, -28.548857336482573, 68.84224230598302, 62.59901842780438 
166.53420384726374, 0.48274223647828246, 21.67424321620164, -27.97757442998323, 69.2550355438847, 62.59588132868424 
165.61874294579545, 0.30565575139949436, 21.674249032476435, -27.36586223750482, 69.66257188156875, 62.592834082680234 
164.70218511967215, 0.1343482117747309, 21.67425217280201, -26.711858336228048, 70.06443273531852, 62.58987841866861 
163.78455065747087, -0.031129704530080182, 21.674252884437642, -26.0136515967481, 70.46017326473746, 62.58701601924534 
162.86586178297378, -0.19072878915892694, 21.674251409106333, -25.26929239649276, 70.84932099203519, 62.584248519213396 
161.9461426143034, -0.3444013412782104, 21.674247982621537, -24.47680580873413, 71.23137449301831, 62.581577504108125 
161.0254191201397, -0.4921012051479243, 21.674242834523785, -23.634208246312042, 71.60580220555985, 62.57900450876189 
160.10371907301612, -0.6337838071567927, 21.674236187727622, -22.73952806459061, 71.97204141157304, 62.57653101591011 
159.18107199970112, -0.7694061922263776, 21.67422825817934, -21.790830636276308, 72.32949745990581, 62.57415845484062 
158.25750912868173, -0.8989270594893656, 21.674219254525987, -20.786248393247604, 72.67754330986118, 62.57188820008761 
157.33306333477745, -1.0223067971477635, 21.674209377796046, -19.724016277400555, 73.01551948781459, 62.56972157017215 
156.40776908092158, -1.1395075164175945, 21.674198821092226, -18.602512942029776, 73.34273456197398, 62.56765982639078 
155.4816623571586, -1.250493084468, 21.67418776929681, -17.420307884711526, 73.65846625175246, 62.56570417165363 
154.55478061691764, -1.3552291562641343, 21.674176398789854, -16.17621445931608, 73.96196329718632, 62.56385574937372 
153.62716271063096, -1.4536832052252926, 21.674164877180687, -14.869348397632987, 74.25244821866258, 62.56211564240864 
152.69884881677905, -1.5458245526120387, 21.674153363053087, -13.499191063301694, 74.52912109589029, 62.56048487205637 
151.76988037045288, -1.6316243955587444, 21.67414200572438, -12.065656162857534, 74.7911644852636, 62.558964397105804 
150.84029998953488, -1.7110558336710355, 21.67413094501886, -10.569158062504185, 75.03774957412212, 62.557555112944236 
149.91015139861003, -1.7840938941111104, 21.674120311055788, -9.010679231661216, 75.2680436366943, 62.55625785072203 
148.97947935072816, -1.8507155550975318, 21.674110224052264, -7.391833700829368, 75.48121880806661, 62.55507337657605 
148.04832954714743, -1.9108997677502326, 21.67410079414128, -5.714922847218978, 75.67646212878518, 62.554002390912714 
147.11674855519897, -1.9646274762159404, 21.674092121205074, -3.9829793904132806, 75.85298673472582, 62.5530455277518 
146.184783724419, -2.0118816360137983, 21.674084294724157, -2.19979528738085, 76.0100439778629, 62.55220335413156 
145.25248310110422, -2.0526472305460532, 21.67407739364206, -0.3699293566705943, 76.14693616919797, 62.55147636957604 
144.31989534145265, -2.086911285723872, 21.67407148624616, 1.501308986138735, 76.26302954351446, 62.550865005625624 
143.38706962345825, -2.114662882663847, 21.67406663006454, 3.407902494597651, 76.35776696691576, 62.5503696254308 
142.4540555577338, -2.1358931684164593, 21.674062871779192, 5.343196529559864, 76.43067985330715, 62.549990523410244 
141.52090309744094, -2.1505953646936278, 21.674060247155584, 7.299996545209993, 76.48139873546133, 62.54972792497342 
140.58766244751087, -2.158764774568563, 21.674058780988727, 9.270690008882815, 76.50966195787936, 62.54958198630812 
139.65438397334242, -2.160398787127278, 21.67405848706572, 11.24738816974339, 76.51532202576584, 62.549552794233016 
138.72111810916599, -2.1554968800574295, 21.674059368145045, 13.222081381805959, 76.49834925483772, 62.549640366116044 
137.787915266264, -2.1440606201664774, 21.67406141595234, 15.186800467575807, 76.4588325120743, 62.54984464985768 
136.85482574123964, -2.1260936618275896, 21.67406461119291, 17.133776052358105, 76.39697700431243, 62.55016552394042 
135.9218996245238, -2.101601743358074, 21.674068923580823, 19.05558798701468, 76.3130992428481, 62.55060279754312 
134.9891867093111, -2.0705926813414917, 21.674074311884556, 20.945297881161448, 76.20761947026192, 62.55115621072107 
134.0567364011121, -2.033076362911007, 21.674080723989245, 22.796559259269554, 76.0810519649808, 62.55182543465098 
133.12459762810707, -1.9890647360176297, 21.67408809697529, 24.60370172286486, 75.93399372850513, 62.55261007194063 
132.19281875248268, -1.9385717977132804, 21.674096357213333, 26.361787511805776, 75.76711210447417, 62.55350965700312 
131.26144748292836, -1.8816135804843965, 21.674105420475453, 28.066640773571443, 75.58113187852493, 62.55452365649459 
130.33053078846336, -1.8182081366777882, 21.674115192062377, 29.714851483264667, 75.37682236905943, 62.555651469815565 
129.4001148137612, -1.748375521065923, 21.67412556694664, 31.303757186888713, 75.15498495090297, 62.5568924296747 
128.47024479612875, -1.6721377716041603, 21.674136429931412, 32.83140651709293, 74.91644136733224, 62.55824580271453 
127.54096498429239, -1.589518888437747, 21.67414765582479, 34.29650876901492, 74.66202309181072, 62.559710790198096 
126.61231855913421, -1.500544811221004, 21.674159109629436, 35.69837378633397, 74.39256190821365, 62.56128652875579 
125.68434755651288, -1.4052433948158607, 21.67417064674711, 37.03684608333411, 74.10888179428646, 62.5629720911915 
124.75709279229515, -1.303644383441082, 21.67418211319806, 38.31223661475177, 73.8117921219717, 62.5647664873466 
123.83059378971429, -1.1957793833473862, 21.674193345854718, 39.52525499198821, 73.5020821321328, 62.56666866502122 
122.90488870916144, -1.0816818340973606, 21.67420417268968, 40.67694430681319, 73.1805166002724, 62.56867751095111 
121.98001428050694, -0.9613869785322227, 21.674214413037376, 41.76862011734403, 72.84783258291446, 62.57079185183907 
121.05600573803683, -0.834931831510365, 21.674223877869284, 42.801814611713354, 72.50473711940165, 62.573010455439714 
120.13289675808001, -0.7023551475051413, 21.674232370082173, 43.77822651132512, 72.1519057586001, 62.5753320316959 
119.21071939939117, -0.5636973871515706, 21.6742396847991, 44.69967691360826, 71.78998178202731, 62.57775523392545 
118.28950404634271, -0.41900068283325237, 21.674245609682753, 45.56807100011901, 71.41957600204887, 62.58027866005705 
117.36927935496942, -0.268308803402408, 21.674249925260625, 46.3853653404292, 71.04126702416839, 62.582900853912975 
116.45007220189852, -0.11166711812685064, 21.6742524052617, 47.153540393340194, 70.65560187457655, 62.585620306537706 
115.53190763618673, 0.050877440041489475, 21.674252816964206, 47.874577731691005, 70.26309690689479, 62.58843545757057 
114.61480883407673, 0.2192764117816175, 21.674250921553856, 48.550441483083944, 69.86423891464419, 62.5913446966605 
113.69879705667415, 0.3934798492071344, 21.674246474492268, 49.18306347531498, 69.45948638784952, 62.59434636492121 
112.78389161053781, 0.573436354063858, 21.674239225894922, 49.77433159297541, 69.04927086302946, 62.59743875642522 
111.870109811165, 0.7590931162274567, 21.674228920918296, 50.326080883185554, 68.63399832546473, 62.600620119734735 
110.95746694934539, 0.9503959524080184, 21.67421530015559, 50.84008698799864, 68.21405063102733, 62.60388865946715 
110.04597626034894, 1.14728934496967, 21.67419810004046, 51.31806152440835, 67.78978692202995, 62.60724253789392 
109.13564889590332, 1.3497164807749336, 21.674177053258425, 51.76164907705778, 67.36154501759312, 62.61067987657036 
108.22649389891079, 1.5576192899651042, 21.67415188916517, 52.17242551160467, 66.92964276403804, 62.61419875799451 
107.3185181808451, 1.770938484590144, 21.67412233421139, 52.55189735692704, 66.49437933491456, 62.617797227293266 
106.41172650176419, 1.9896135970033466, 21.6740881123735, 52.90150204119364, 66.05603647358821, 62.621473293933526 
105.50612145286648, 2.213583017939016, 21.67404894558965, 53.22260879992097, 65.61487967395284, 62.62522493345628 
104.60170344151473, 2.4427840341932243, 21.674004554200557, 53.516520103422245, 65.17115929691425, 62.629050089231946 
103.69847067864445, 2.6771528658311596, 21.673954657394496, 53.78447347663817, 64.72511162189863, 62.63294667423456 
102.79641916847125, 2.91662470284682, 21.673898973655884, 54.02764360645793, 64.27695983386484, 62.63691257283277 
101.89554270040588, 3.1611337412041127, 21.673837221216875, 54.247144650588496, 63.82691494720886, 62.640945642595966 
100.99583284308363, 3.4106132181914917, 21.67376911851138, 54.44403267813601, 63.37517666860777, 62.64504371611266 
100.09727894041113, 3.664995447025085, 21.673694384630913, 54.61930818565662, 62.921934201307174, 62.649204602820134 
99.19986810953138, 3.9242118506389594, 21.673612739781653, 54.77391864383112, 62.46736699365476, 62.65342609084226 
98.303585240607, 4.1881929946039405, 21.67352390574214, 54.90876103941843, 62.0116454348575, 62.65770594883407 
97.40841299831878, 4.4568686191201214, 21.673427606320978, 55.02468438501418, 61.55493150101939, 62.6620419278308 
96.51433182497794, 4.7301676700310376, 21.673323567814005, 55.12249217562695, 61.09737935452441, 62.66643176309942 
95.62131994514851, 5.00801832881132, 21.673211519460263, 55.202944776397956, 60.63913589978313, 62.67087317599056 
94.72935337167789, 5.290348041482298, 21.673091193896187, 55.26676173011651, 60.18034129827628, 62.675363875788776 
93.83840591303334, 5.5770835464139275, 21.672962327607475, 55.31462397668391, 59.721129445716535, 62.67990156155958 
92.94844918184438, 5.868150900974013, 21.672824661377945, 55.34717597949032, 59.26162841401866, 62.684483923990406 
92.0594526045518, 6.163475506989338, 21.672677940734925, 55.36502775590982, 58.80196086062733, 62.689108647224714 
91.1713834320663, 6.462982134986198, 21.67252191639041, 55.36875681088768, 58.342244407603324, 62.69377341068612 
90.28420675134278, 6.766594947180787, 21.672356344677635, 55.35890997397418, 57.88259199272117, 62.69847589089168 
89.39788549777771, 7.074237519193129, 21.672180987982255, 55.33600514122171, 57.42311219468214, 62.703213763251625 
88.51238046834199, 7.3858328604607495, 21.671995615167816, 55.300532924165175, 56.96390953440373, 62.7079847038546 
87.62765033536297, 7.7013034333314865, 21.67180000199464, 55.2529582086975, 56.505084754206834, 62.71278639123563 
86.74365166087524, 8.020571170817039, 21.67159393153196, 55.193721627075334, 56.04673507658955, 62.717616508125865 
85.86033891146182, 8.343557492992055, 21.67137719456243, 55.12324094657541, 55.58895444415082, 62.72247274318189 
84.97766447351339, 8.670183322025341, 21.671149589978622, 55.041912378499624, 55.131833742108164, 62.72735279269323 
84.09557866883613, 9.00036909583299, 21.670910925171036, 54.95011181131815, 54.67546100474239, 62.732254362266204 
83.21402977054518, 9.334034780344682, 21.670661016406974, 54.84819597176338, 54.2199216069989, 62.73717516848241 
82.33296401918419, 9.67109988037731, 21.67039968919997, 54.73650351766005, 53.76529844237757, 62.742112940530674 
81.4523256390174, 10.011483449111859, 21.670126778668955, 54.61535606620779, 53.31167208815378, 62.747065421810795 
80.57205685444656, 10.35510409617131, 21.66984212988716, 54.48505916133556, 52.85912095888996, 62.75203037150708 
79.69209790650908, 10.701879994299833, 21.66954559821986, 54.345903183627264, 52.40772144912, 62.757005566131234 
78.81238706942143, 11.051728884644575, 21.66923704965065, 54.198164206183996, 51.957548066017615, 62.76198880103235 
77.93286066713632, 11.404568080643845, 21.668916361096013, 54.04210479964332, 51.50867355279459, 62.76697789187315 
77.05345308988892, 11.760314470526492, 21.668583420707446, 53.87797478942626, 51.061169003514685, 62.77197067607086 
76.17409681071364, 12.118884518429548, 21.668238128160862, 53.70601196812943, 50.61510396995286, 62.77696501420203 
75.29472240191942, 12.48019426414195, 21.667880394933057, 53.52644276582701, 50.170546561079355, 62.781958791369405 
74.415258551518, 12.844159321484277, 21.667510144564503, 53.33948288089624, 49.72756353570075, 62.78694991853018 
73.53563207960633, 13.210694875335571, 21.667127312908462, 53.14533787383234, 49.28622038874724, 62.79193633378441 
72.65576795471168, 13.579715677319498, 21.666731848365824, 52.94420372637513, 48.84658143165621, 62.79691600362276 
71.77558931011437, 13.951136040163856, 21.666323712105534, 52.73626736813194, 48.40870986726553, 62.801886924132084 
70.8950174601714, 14.324869830748304, 21.66590287827009, 52.521707172748435, 47.97266785959699, 62.80684712215858 
70.01397191667036, 14.70083046185679, 21.66546933416606, 52.30069342555254, 47.53851659887989, 62.811794656427004 
69.13237040525229, 15.078930882652182, 21.665023080439138, 52.07338876447654, 47.10631636213668, 62.81672761861573 
