# MEX_intpoint_lon [deg], MEX_intpoint_lat [deg], MEX_intpoint_angle [deg], TGO_intpoint_lon [deg], TGO_intpoint_lat [deg], TGO_intpoint_angle [deg] 
-139.34427622087614, 19.597741496496763, 21.792648212084217, -27.418436644991132, 40.68245167362803, 62.90655827072868 
-140.23433037825632, 19.194321249620224, 21.79325182572511, -27.684473612202257, 41.093682719116636, 62.901875588418356 
-141.1227596620906, 18.792041789901095, 21.79384323634064, -27.945289560480877, 41.50742961568074, 62.89715611147028 
-142.00966856283122, 18.390997225869505, 21.79442227849444, -28.200779433623044, 41.923634903084725, 62.89240132389153 
-142.89515990933768, 17.991281005108878, 21.794988801535215, -28.45083405826149, 42.342240566765284, 62.88761275513933 
-143.77933484904048, 17.59298593852501, 21.79554266961168, -28.6953399175064, 42.76318800648493, 62.88279197958939 
-144.66229282911974, 17.196204223561338, 21.79608376166963, -28.934178913067875, 43.18641800258645, 62.87794061594976 
-145.5441315785511, 16.80102746632643, 21.79661197143132, -29.167228115174467, 43.61187067971396, 62.87306032662095 
-146.42494709088413, 16.407546702601426, 21.797127207357004, -29.394359499560814, 44.03948546785541, 62.868152817002276 
-147.3048336076269, 16.015852417697516, 21.79762939258882, -29.6154396707534, 44.46920106055014, 62.863219834745266 
-148.18388360212333, 15.626034565134553, 21.79811846487732, -29.830329570838174, 44.9009553700933, 62.8582631689538 
-149.06218776381877, 15.238182584114334, 21.79859437649035, -30.03888417284525, 45.33468547955484, 62.85328464933187 
-149.93983498281946, 14.852385415762981, 21.799057094104956, -30.240952157836738, 45.77032759141764, 62.848286145279644 
-150.81691233466157, 14.468731518118433, 21.79950659868204, -30.43637557473193, 46.20781697262289, 62.84326956493765 
-151.6935050652138, 14.087308879840682, 21.799942885324228, -30.624989481850335, 46.64708789579488, 62.838236854180614 
-152.5696965756482, 13.70820503262313, 21.800365963117105, -30.806621569098876, 47.08807357639928, 62.833189995560865 
-153.4455684074205, 13.331507062285331, 21.800775854953965, -30.981091759672573, 47.530706105569216, 62.82813100720243 
-154.3212002272121, 12.95730161852787, 21.80117259734448, -31.148211790081678, 47.974916378313125, 62.823061941646536 
-155.1966698117918, 12.585674923332032, 21.801556240207436, -31.30778476726029, 48.42063401679548, 62.81798488464924 
-156.072053032766, 12.21671277798744, 21.80192684664787, -31.459604701454378, 48.86778728835736, 62.81290195393222 
-156.94742384119107, 11.850500568732594, 21.802284492718986, -31.603456013530902, 49.31630301791743, 62.80781529788769 
-157.82285425203185, 11.487123270993921, 21.80262926716903, -31.73911301529506, 49.766106494366376, 62.80272709423817 
-158.69841432845638, 11.126665452210599, 21.802961271173668, -31.866339361351503, 50.2171213705369, 62.79763954865262 
-159.57417216596414, 10.769211273233399, 21.803280618054036, -31.984887470998515, 50.6692695562995, 62.79255489331967 
-160.4501938763531, 10.4148444882872, 21.803587432980994, -32.09449791860345, 51.12247110429908, 62.7874753854793 
-161.32654357153646, 10.06364844348827, 21.8038818526659, -32.1948987908757, 51.576644087810365, 62.78240330591437 
-162.20328334722902, 9.715706073908564, 21.80416402503839, -32.28580500943262, 52.03170447015031, 62.7773409574027 
-163.0804732665265, 9.37109989918122, 21.8044341089115, -32.366917617046376, 52.48756596504271, 62.77229066313177 
-163.9581713434108, 9.029912017642541, 21.804692273634654, -32.43792302597133, 52.94413988728579, 62.767254765077006 
-164.8364335262184, 8.69222409900784, 21.80493869873497, -32.4984922267849, 53.40133499302437, 62.76223562234509 
-165.71531368111584, 8.358117375579917, 21.80517357354732, -32.54827995623621, 53.859057308878505, 62.757235609483956 
-166.59486357563253, 8.027672631991175, 21.80539709683374, -32.58692382269322, 54.31720994912582, 62.75225711476099 
-167.47513286230617, 7.7009701934818615, 21.80560947639247, -32.614043387916325, 54.77569292007922, 62.74730253841082 
-168.3561690625024, 7.378089912719599, 21.80581092865744, -32.62923920407637, 55.234402910742304, 62.74237429085472 
-169.23801755047472, 7.059111155166952, 21.80600167828846, -32.632091805185865, 55.693233068764165, 62.73747479089296 
-170.12072153773715, 6.7441127830064245, 21.806181957752873, -32.62216065243844, 56.15207276065237, 62.73260646387203 
-171.00432205782548, 6.433173137634515, 21.806352006898997, -32.59898303336755, 56.6108073151391, 62.727771739828555 
-171.88885795152913, 6.126370020739217, 21.806512072522132, -32.56207291525917, 57.06931774853058, 62.722973051611426 
-172.7743658526787, 5.823780673977589, 21.8066624079236, -32.51091975390456, 57.527480470807106, 62.71821283298454 
-173.66088017458, 5.525481757272983, 21.806803272463316, -32.44498725958419, 57.98516697117864, 62.71349351671163 
-174.5484330971869, 5.231549325754517, 21.80693493110665, -32.363712123157896, 58.442243481742985, 62.708817532625126 
-175.43705455511167, 4.942058805363901, 21.80705765396605, -32.26650270633542, 58.898570617842324, 62.704187305681415 
-176.3267722265723, 4.657084967158155, 21.80717171583807, -32.152737701649755, 59.35400299367007, 62.69960525400418 
-177.21761152337993, 4.376701900339761, 21.807277395736396, -32.02176476939979, 59.8083888116491, 62.69507378691787 
-178.1095955820728, 4.100982984048878, 21.807374976421464, -31.872899160915626, 60.26156942408843, 62.69059530297358 
-179.00274525630365, 3.830000857955724, 21.80746474392733, -31.705422339987532, 60.71337886563239, 62.68617218796943 
-179.8970791105898, 3.5638273916946113, 21.807546987086408, -31.51858061725031, 61.163643355052116, 62.68180681296719 
179.20738658446317, 3.3025336531843457, 21.80762199705264, -31.311583815800137, 61.61218076500049, 62.67750153230805 
178.3106378553536, 3.0461898758832615, 21.807690066823724, -31.083603990418695, 62.058800058469686, 62.673258681628916 
177.41266302718063, 2.794865425030841, 21.80775149076319, -30.83377422757556, 62.50330069086319, 62.66908057588199 
176.51345272333458, 2.5486287629309783, 21.80780656412267, -30.561187558963827, 62.945471976839706, 62.66496950735963 
175.6129998632714, 2.307547413335911, 21.80785558256522, -30.264896027794794, 63.385092421415706, 62.66092774372673 
174.7112996582622, 2.0716879249929243, 21.807898841690214, -29.943909954527555, 63.821929015250205, 62.656957526062826 
173.8083496050121, 1.8411158344197645, 21.807936636560477, -29.597197457237332, 64.25573649459662, 62.653061066916365 
172.90414947704383, 1.6158956279777867, 21.807969261232223, -29.223684291512214, 64.68625656712183, 62.649240548373015 
171.9987013137459, 1.3960907033154581, 21.807997008288446, -28.822254085682097, 65.11321710568718, 62.6454981201407 
171.09200940698847, 1.1817633302580282, 21.80802016837637, -28.391749059358688, 65.5363313132945, 62.64183589765315 
170.1840802852145, 0.9729746112220936, 21.808039029749644, -27.93097132669276, 65.95529686375707, 62.63825596019487 
169.27492269491847, 0.7697844412372649, 21.808053877815645, -27.43868490035755, 66.36979502429901, 62.63476034904877 
168.36454757943164, 0.5722514676595452, 21.80806499468888, -26.91361852787202, 66.77948976825881, 62.631351065669634 
167.45296805493726, 0.38043304966400626, 21.80807265875059, -26.354469508189492, 67.1840268884139, 62.6280300698852 
166.54019938364826, 0.19438521760677593, 21.808077144215563, -25.759908653031307, 67.58303312419318, 62.6247992781269 
165.62625894408507, 0.014162632348568542, 21.808078720706483, -25.128586573565357, 67.97611531923882, 62.62166056169264 
164.71116619840075, -0.16018145536586598, 21.80807765283647, -24.4591414877747, 68.36285962944065, 62.61861574504393 
163.79494265670837, -0.3285952453762397, 21.80807419980026, -23.750208755968828, 68.74283080571017, 62.615666604138866 
162.8776118383751, -0.49102842832549376, 21.808068614974722, -23.00043235971603, 69.1155715803679, 62.612814864803724 
161.959199230256, -0.647432225530008, 21.8080611455291, -22.208478540952232, 69.48060219104667, 62.61006220114473 
161.03973224185154, -0.7977594284014378, 21.808052032045573, -21.37305181061514, 69.8374200813692, 62.607410234002195 
160.11924015738256, -0.9419644373197703, 21.808041508150566, -20.492913516868974, 70.18549982319531, 62.60486052944894 
159.1977540847868, -1.0800032998569613, 21.808029800157392, -19.56690312840853, 70.52429331072767, 62.602414597335006 
158.27530690165275, -1.211833748250757, 21.80801712672061, -18.593962334754806, 70.85323028190692, 62.60007388988023 
157.35193319811722, -1.3374152360285143, 21.80800369850256, -17.57316198908484, 71.17171922690598, 62.59783980031677 
156.42766921676454, -1.456708973681987, 21.80798971785263, -16.50373181645707, 71.47914874662825, 62.59571366158332 
155.50255278957678, -1.5696779632950724, 21.80797537849951, -15.385092678538749, 71.77488942529538, 62.59369674507242 
154.57662327199637, -1.6762870320283054, 21.807960865256984, -14.216891023775085, 72.0582962797456, 62.591790259432834 
153.64992147417274, -1.7765028643658034, 21.80794635374352, -12.999034960243774, 72.3287118431546, 62.589995349428364 
152.72248958947813, -1.8702940330329059, 21.807932010116208, -11.731731171228294, 72.58546993171966, 62.588313094854605 
151.79437112038698, -1.9576310284954357, 21.80791799081915, -10.415521658878797, 72.82790012866002, 62.586744509514965 
150.8656108018255, -2.0384862869548988, 21.80790444234692, -9.051319062076052, 73.05533300009236, 62.58529054025785 
149.93625452210927, -2.1128342167573706, 21.807891501023125, -7.6404390688508235, 73.26710603165685, 62.58395206607523 
149.00634924159553, -2.1806512231378554, 21.807879292794638, -6.184628254510411, 73.46257024335802, 62.58272989726495 
148.07594290918888, -2.2419157312262636, 21.807867933041482, -4.686085550961959, 73.64109740370071, 62.581624774657065 
147.14508437684702, -2.296608207245729, 21.807857526402923, -3.1474755193048356, 73.80208772431399, 62.58063736890553 
146.2138233122431, -2.344711177839086, 21.80784816661974, -1.5719316837143003, 73.94497787509421, 62.57976827984629 
145.28221010974926, -2.3862092474645427, 21.807839936393034, 0.036951588767944264, 74.06924912042217, 62.579018035922495 
144.35029579991337, -2.421089113807263, 21.807832907259755, 1.6751398000222315, 74.1744353427336, 62.57838709367739 
143.41813195760892, -2.4493395811592826, 21.807827139485017, 3.338192236899666, 74.2601306944266, 62.57787583731627 
142.4857706090426, -2.4709515717264803, 21.807822681971434, 5.021309055117102, 74.32599660638597, 62.577484578337 
141.55326413781066, -2.4859181348273474, 21.80781957218558, 6.719390762838378, 74.37176788423658, 62.57721355523087 
140.62066519019976, -2.4942344539550034, 21.80781783610166, 8.427108579723038, 74.39725764357372, 62.57706293325295 
139.68802657992993, -2.49589785168034, 21.80781748816245, 10.138983436189278, 74.4023608730257, 62.57703280426323 
138.75540119254217, -2.4909077923809715, 21.807818531257595, 11.849470783391531, 74.38705646742582, 62.57712318663806 
137.82284188963285, -2.4792658827874745, 21.807820956719265, 13.553047971002728, 74.35140763914474, 62.577334025252696 
136.89040141313941, -2.4609758703451328, 21.807824744335164, 15.244300763803084, 74.29556068881074, 62.57766519153405 
135.9581322898803, -2.4360436393964124, 21.80782986237892, 16.918005630716802, 74.21974219135028, 62.57811648358479 
135.02608673655172, -2.4044772051960233, 21.807836267657844, 18.569204744065836, 74.12425472344894, 62.57868762637719 
134.09431656538183, -2.3662867057773753, 21.807843905577787, 20.19327113776027, 74.0094713186668, 62.57937827201789 
133.16287309063836, -2.3214843916956918, 21.80785271022533, 21.78596213451746, 73.87582888228081, 62.58018800008213 
132.23180703618394, -2.2700846136798227, 21.80786260446694, 23.34345989479517, 73.72382082688938, 62.58111631801764 
131.30116844426652, -2.2121038082308817, 21.807873500065053, 24.862398692177457, 73.55398920116797, 62.58216266161722 
130.3710065857277, -2.147560481212331, 21.807885297810973, 26.339879216716287, 73.36691657892462, 62.58332639555991 
129.4413698718043, -2.0764751894819087, 21.807897887674315, 27.773470798711976, 73.163217956181, 62.58460681401921 
128.51230576769268, -1.9988705206214992, 21.80791114896887, 29.161202898405403, 72.94353287374713, 62.58600314133858 
127.58386070803508, -1.9147710708266354, 21.807924950534662, 30.50154750881406, 72.70851794541633, 62.58751453277234 
126.65608001448122, -1.8242034210224058, 21.80793915093588, 31.793394273107467, 72.45883993117867, 62.589140075291624 
125.72900781546636, -1.7271961112772725, 21.807953598674565, 33.03602014105043, 72.19516945399955, 62.59087878845399 
124.80268696833963, -1.6237796135910465, 21.807968132419607, 34.229055305922216, 71.91817542034374, 62.59272962533568 
123.8771589839645, -1.513986303137109, 21.807982581250855, 35.37244700234464, 71.6285201705909, 62.59469147352528 
122.95246395390387, -1.397850428043039, 21.807996764918013, 36.46642253480415, 71.32685535688684, 62.596763156177445 
122.02864048028995, -1.2754080777970243, 21.808010494113933, 37.51145267155883, 71.01381852324734, 62.59894343312532 
121.10572560846926, -1.1466971503705017, 21.80802357076195, 38.508216299731835, 70.69003034579877, 62.60123100205011 
120.18375476250054, -1.0117573181501034, 21.808035788316907, 39.4575670101621, 70.35609247944625, 62.603624499706456 
119.26276168357269, -0.8706299927742523, 21.80804693207944, 40.36050207539635, 70.01258595032077, 62.60612250320181 
118.34277837139756, -0.7233582889715447, 21.808056779523177, 41.218134106990306, 69.66007003027305, 62.608723531328465 
117.42383502862178, -0.5699869874994593, 21.808065100634288, 42.03166553137548, 69.29908152963526, 62.61142604594594 
116.50596000828932, -0.4105624972830764, 21.8080716582631, 42.80236590660291, 68.93013444669668, 62.614228453412906 
115.58917976437583, -0.2451328168541747, 21.808076208487115, 43.531552013156514, 68.55371991614723, 62.6171291060655 
114.67351880540524, -0.07374749519119905, 21.808078500985204, 44.22057058752153, 68.17030640356195, 62.620126303741614 
113.75899965114662, 0.10354240793928807, 21.808078279422208, 44.87078352359308, 67.78034009836195, 62.62321829534793 
112.84564279238099, 0.2866843620395024, 21.808075281843667, 45.48355534052802, 67.38424546323536, 62.626403280468686 
111.93346665371585, 0.4756244062363567, 21.80806924108005, 46.06024270270148, 66.9824259034712, 62.62967941101346 
111.0224875594165, 0.6703071898381521, 21.808059885159885, 46.60218577481009, 66.57526452486577, 62.633044792902545 
110.11271970221378, 0.8706760129949292, 21.808046937731486, 47.110701200102234, 66.16312495368797, 62.63649748778715 
109.20417511503881, 1.076672867367425, 21.80803011849235, 47.5870764999139, 65.74635219656722, 62.64003551480296 
108.29686364562775, 1.2882384767111321, 21.808009143626098, 48.03256570629478, 65.32527352207238, 62.64365685235443 
107.39079293393092, 1.5053123372843547, 21.807983726245983, 48.44838605507869, 64.90019934917406, 62.647359439927946 
106.48596839225483, 1.7278327579914778, 21.80795357684467, 48.83571558318946, 64.47142413075225, 62.65114117993136 
105.58239318805748, 1.9557369001752865, 21.807918403749483, 49.19569149047623, 64.03922722285179, 62.654999939558046 
104.6800682293133, 2.188960816974851, 21.80787791358276, 49.52940914237715, 63.60387373253937, 62.658933552672956 
103.77899215235686, 2.4274394921686793, 21.80783181172641, 49.83792160484284, 63.16561533901888, 62.66293982171854 
102.87916131211122, 2.6711068784256358, 21.807779802790403, 50.12223961698005, 62.724691084157115, 62.66701651963844 
101.98056977460193, 2.9198959348894977, 21.80772159108423, 50.38333191968325, 62.281328129799675, 62.671161391816405 
101.08320931165436, 3.1737386640263625, 21.807656881091066, 50.62212587006329, 61.83574248025409, 62.67537215802847 
100.18706939766909, 3.4325661476673175, 21.80758537794367, 50.8395082817766, 61.38813966911841, 62.67964651440581 
99.29213720836808, 3.696308582182431, 21.807506787901673, 51.036326440454744, 60.93871541026837, 62.683982135406595 
98.39839762140204, 3.9648953127253996, 21.807420818829517, 51.213389251412245, 60.48765621331256, 62.688376675793975 
97.50583321870882, 4.238254866491974, 21.807327180674346, 51.37146848375918, 60.03513996420506, 62.692827772618436 
96.6144242905117, 4.51631498493843, 21.8072255859434, 51.511300081059915, 59.581336471991015, 62.69733304720201 
95.72414884084623, 4.799002654910229, 21.807115750180145, 51.63358551385785, 59.12640798286712, 62.70189010712237 
94.83498259450519, 5.086244138634139, 21.806997392438536, 51.73899315382222, 58.67050966288362, 62.70649654819451 
93.94689900529161, 5.377965002530975, 21.806870235754857, 51.82815965305379, 58.21379005070707, 62.71114995644814 
93.05986926547136, 5.674090144808886, 21.806734007616473, 51.9016913152955, 57.75639148191615, 62.71584791009787 
92.17386231631879, 5.974543821801101, 21.80658844042687, 51.9601654485045, 57.298450486322956, 62.72058798150548 
91.2888448596507, 6.279249673014905, 21.806433271966423, 52.004131690522, 56.840098159807994, 62.72536773913052 
90.4047813702471, 6.588130744861806, 21.80626824584821, 52.034113301486514, 56.381460512134375, 62.73018474946878 
89.52163410905959, 6.901109513042245, 21.8060931119684, 52.050608418225536, 55.92265879216833, 62.73503657897561 
88.63936313711231, 7.218107903560701, 21.805907626950475, 52.05409126718063, 55.4638097918859, 62.73992079597213 
87.75792633000287, 7.539047312350551, 21.8057115545828, 52.045013333506795, 55.00502613049011, 62.74483497253347 
86.8772793929166, 7.863848623490142, 21.805504666248986, 52.02380448487867, 54.546416519902955, 62.749776686355645 
85.99737587606917, 8.192432225994947, 21.80528674135039, 51.99087404926013, 54.08808601283372, 62.754743522600265 
85.11816719049978, 8.52471802917249, 21.80505756772026, 51.9466118464797, 53.630136234560986, 62.75973307571509 
84.23960262413992, 8.86062547652993, 21.80481694202899, 51.891389173920466, 53.17266559950125, 62.76474295122832 
83.36162935808885, 9.200073558225862, 21.804564670179904, 51.825559747003, 52.71576951357395, 62.76977076751504 
82.4841924830319, 9.542980822060583, 21.804300567695066, 51.74946059542669, 52.25954056331058, 62.77481415753475 
81.60723501574272, 9.88926538300107, 21.804024460090655, 51.66341291635307, 51.8040686925953, 62.779870770537165 
80.73069791561741, 10.238844931238752, 21.80373618324133, 51.56772288587807, 51.34944136786778, 62.78493827373591 
79.85452010119269, 10.59163673878039, 21.803435583733133, 51.462682430255065, 50.895743732562934, 62.79001435394779 
78.97863846660796, 10.947557664573853, 21.80312251920447, 51.3485699584092, 50.44305875151069, 62.79509671919671 
78.10298789797605, 11.306524158172593, 21.80279685867478, 51.2256510573298, 49.99146734596908, 62.80018310028014 
77.22750128963439, 11.668452261943935, 21.80245848286022, 51.094179151949525, 49.541048519917645, 62.80527125229772 
76.35210956025502, 12.033257611828228, 21.802107284476296, 50.95439613112054, 49.091879478193576, 62.81035895613962 
75.47674166879781, 12.400855436656919, 21.801743168526674, 50.80653294128354, 48.644035737012736, 62.8154440199345 
74.60132463029943, 12.771160556039304, 21.801366052578086, 50.65081014939852, 48.19759122737837, 62.82052428045467 
73.7257835314957, 13.144087376829123, 21.80097586702071, 50.48743847666936, 47.75261839184475, 62.82559760447843 
72.8500415462847, 13.519549888183027, 21.8005725553138, 50.31661930455087, 47.309188275069204, 62.830661890107926 
71.97401995104268, 13.897461655224662, 21.80015607421625, 50.13854515447684, 46.86737060855467, 62.83571506804124 
71.09763813981473, 14.277735811329006, 21.799726394001667, 49.953400142695465, 46.42723388995595, 62.84075510279837 
70.2208136394081, 14.660285049043004, 21.79928349865767, 49.76136041154225, 45.98884545729523, 62.84577999389992 
69.34346212442567, 15.045021609659395, 21.79882738606929, 49.56259453842414, 45.55227155840799, 62.85078777699716 
