# MEX_intpoint_lon [deg], MEX_intpoint_lat [deg], MEX_intpoint_angle [deg], TGO_intpoint_lon [deg], TGO_intpoint_lat [deg], TGO_intpoint_angle [deg] 
-138.49647195628896, 19.39147182820707, 21.224863941257514, -27.74569975305869, 47.44002042311616, 62.76402258814991 
-139.40486692259833, 19.01903676805019, 21.225400943387307, -28.13075557204324, 47.82111604800322, 62.75969341486964 
-140.3116519137046, 18.647574454121752, 21.22592780368829, -28.512611389749864, 48.20495732788244, 62.7553398085252 
-141.21691856893312, 18.27717576926693, 21.226444373883005, -28.891206223806748, 48.59150500495417, 62.75096312944204 
-142.12075724850118, 17.90793095900033, 21.226950517978665, -29.26647640824426, 48.980719686041894, 62.746564768453894 
-143.0232570031127, 17.53992964824675, 21.22744611228266, -29.63835541535121, 49.37256183683274, 62.7421461464304 
-143.9245055449478, 17.17326085736986, 21.227931045403295, -30.006773665992952, 49.76699177522232, 62.73770871376798 
-144.82458921992082, 16.8080130174489, 21.228405218235732, -30.37165832747567, 50.16396966371088, 62.73325394984349 
-145.72359298109106, 16.444273984765537, 21.228868543933178, -30.732933097956984, 50.563455500793914, 62.728783362431805 
-146.62160036311653, 16.082131054465727, 21.22932094786339, -31.090517976310327, 50.96540911128371, 62.7242984870868 
-147.51869345765087, 15.721670973362635, 21.229762367550585, -31.444329016248165, 51.369790135493105, 62.71980088648647 
-148.4149528895897, 15.36297995184953, 21.23019275260297, -31.79427806339658, 51.776558017204685, 62.7152921497426 
-149.3104577940819, 15.006143674892808, 21.230612064625852, -32.14027247388822, 52.18567199034213, 62.71077389167499 
-150.20528579422756, 14.65124731207722, 21.231020277120614, -32.48221481290355, 52.59709106425103, 62.70624775205113 
-151.09951297939236, 14.29837552667744, 21.231417375369617, -32.820002531436145, 53.01077400748733, 62.701715394791584 
-151.99321388407589, 13.94761248373109, 21.23180335630734, -33.153527619389465, 53.426679330001015, 62.69717850714149 
-152.88646146727712, 13.599041857090812, 21.23217822837774, -33.482676232923275, 53.84476526359065, 62.692638798809064 
-153.77932709230845, 13.252746835433651, 21.23254201137833, -33.807328293759504, 54.26498974049165, 62.68809800107142 
-154.67188050701586, 12.90881012720842, 21.23289473629094, -34.12735705792411, 54.687310369945564, 62.68355786584837 
-155.56418982436975, 12.567313964502448, 21.23323644509951, -34.44262865114316, 55.11168441258256, 62.67902016474519 
-156.45632150339688, 12.228340105811341, 21.233567190595267, -34.75300156782188, 55.53806875242949, 62.67448668806468 
-157.34834033043123, 11.891969837696351, 21.233887036169364, -35.05832613021368, 55.96641986633618, 62.66995924378948 
-158.24030940066646, 11.55828397531583, 21.234196055593504, -35.35844390402598, 56.39669379058924, 62.665439656535405 
-159.13229010000018, 11.227362861818563, 21.234494332788596, -35.653187066306714, 56.82884608445638, 62.6609297664767 
-160.02434208716454, 10.899286366588424, 21.234781961581998, -35.94237772100475, 57.26283179037537, 62.65643142824406 
-160.916523276145, 10.574133882331488, 21.235059045453507, -36.22582715709152, 57.698605390468394, 62.651946509796055 
-161.80888981889373, 10.251984320997963, 21.235325697270593, -36.50333504356349, 58.13612075902571, 62.647476891265455 
-162.7014960883494, 9.932916108533593, 21.235582039013067, -36.774688555007764, 58.57533111056011, 62.643024463780975 
-163.59439466178202, 9.617007178456156, 21.2358282014877, -37.039661420694785, 59.01618894298675, 62.63859112826567 
-164.48763630448377, 9.304334964255098, 21.236064324033126, -37.29801288935417, 59.45864597542786, 62.634178794212914 
-165.38126995383527, 8.994976390613559, 21.236290554215394, -37.54948660087792, 59.90265308008241, 62.6297893784411 
-166.2753427037781, 8.689007863454476, 21.236507047514614, -37.79380935516542, 60.3481602075295, 62.62542480382842 
-167.16989978973191, 8.38650525881381, 21.2367139670031, -38.03068976716178, 60.795116304756775, 62.62108699802827 
-168.06498457399684, 8.087543910546339, 21.23691148301549, -38.25981679582298, 61.24346922511365, 62.61677789216721 
-168.96063853168707, 7.7921985968713665, 21.237099772811156, -38.480858133249896, 61.69316562928721, 62.612499419526046 
-169.8569012372458, 7.500543525767652, 21.237279020229497, -38.69345843853999, 62.14415087628034, 62.60825351420576 
-170.75381035159475, 7.212652319229233, 21.237449415338496, -38.89723739898334, 62.59636890323696, 62.60404210977914 
-171.6514016099755, 6.928597996396076, 21.237611154077, -39.09178759904448, 63.04976209280418, 62.59986713792977 
-172.54970881054322, 6.648452955575592, 21.23776443789121, -39.27667217508488, 63.50427112654347, 62.595730527079496 
-173.44876380377693, 6.37228895517342, 21.237909473365903, -39.451422230948374, 63.95983482269821, 62.59163420100574 
-174.34859648277177, 6.100177093554698, 21.238046471850794, -39.615533986302616, 64.41638995638762, 62.587580077449836 
-175.2492347744833, 5.832187787858773, 21.238175649082592, -39.768465625945765, 64.87387106002531, 62.583570066718515 
-176.15070463199478, 5.568390751793657, 21.2382972248032, -39.909633814080465, 65.33221020144315, 62.57960607027874 
-177.05303002788003, 5.308854972438424, 21.238411422374664, -40.03840983275155, 65.79133673683516, 62.57568997934846 
-177.95623294873818, 5.053648686084697, 21.238518468391167, -40.154115298152455, 66.25117703520993, 62.57182367348407 
-178.86033339097492, 4.80283935315091, 21.23861859228887, -40.25601740222612, 66.71165417054418, 62.568009019166155 
-179.76534935790824, 4.556493632205734, 21.238712025953806, -40.34332361981144, 67.1726875772522, 62.56424786838515 
179.32870314172393, 4.3146773531396665, 21.23879900332865, -40.41517581338587, 67.63419266391134, 62.560542057228325 
178.4218100937765, 4.077455489526428, 21.238879760018555, -40.470643658093095, 68.09608037939368, 62.5568934044692 
177.51395947715258, 3.844892130218728, 21.2389545328969, -40.50871729906746, 68.55825672463038, 62.55330371016181 
176.6051412606245, 3.617050450225227, 21.23902355971116, -40.52829914091155, 69.02062220214953, 62.5497747542402 
175.69534739794474, 3.3939926809185823, 21.23908707868973, -40.52819465538104, 69.48307119425442, 62.54630829512556 
174.78457182117165, 3.175780079626726, 21.239145328149906, -40.50710207771214, 69.94549125920975, 62.542906068341935 
173.87281043213784, 2.962472898662325, 21.239198546107737, -40.46360084443713, 70.40776233303795, 62.53956978514245 
172.96006109199058, 2.7541303538476614, 21.239246969890274, -40.39613860585167, 70.86975582244801, 62.53630113114721 
172.0463236087367, 2.5508105925947704, 21.2392908357506, -40.30301662446655, 71.33133357196444, 62.53310176499462 
171.13159972272734, 2.352570661602889, 21.239330378486173, -40.18237334685216, 71.79234668543214, 62.52997331700733 
170.2158930900218, 2.159466474237438, 21.239365831061104, -40.03216591050364, 72.25263417866024, 62.52691738787492 
169.2992092635738, 1.9715527776570465, 21.239397424232763, -39.850149320244164, 72.71202143594891, 62.52393554735389 
168.38155567218757, 1.7888831197569828, 21.23942538618317, -39.6338530012067, 73.17031843851542, 62.52102933298728 
167.46294159719656, 1.6115098159990875, 21.239449942155773, -39.38055440922081, 73.6273177272904, 62.518200248845005 
166.54337814682262, 1.4394839162002533, 21.239471314098022, -39.08724935709605, 74.08279205607334, 62.515449764286096 
165.62287822817885, 1.272855171352644, 21.23948972031015, -38.750618700903544, 74.53649168350663, 62.51277931274493 
164.70145651688625, 1.1116720005504375, 21.239505375100777, -38.36699103009386, 74.98814124364577, 62.51019029054221 
163.77912942428006, 0.9559814580987954, 21.23951848844966, -37.93230102838309, 75.43743612501126, 62.507684055722386 
162.85591506218847, 0.8058292008818297, 21.239529265678087, -37.44204323238967, 75.88403827691535, 62.50526192691881 
161.93183320527388, 0.661259456066682, 21.239537907127332, -36.89122103179122, 76.32757134971835, 62.502925182248234 
161.0069052509335, 0.5223149892216784, 21.23954460784561, -36.27429095673658, 76.76761506286066, 62.500675058235196 
160.08115417676493, 0.3890370729264158, 21.239549557283922, -35.58510262577777, 77.20369868180116, 62.49851274876855 
159.15460449560862, 0.2614654559515802, 21.23955293900125, -34.81683523723894, 77.63529347372112, 62.49643940409052 
158.22728220818837, 0.13963833308608412, 21.239554930379388, -33.9619322565862, 78.06180400430004, 62.49445612982025 
157.2992147533783, 0.023592315688396256, 21.239555702347914, -33.0120370868911, 78.48255813770082, 62.49256398601218 
156.370430956134, -0.08663759696186954, 21.2395554191195, -31.957934146001133, 78.89679561482181, 62.490763986251146 
155.44096097313212, -0.1910180454373772, 21.23955423793618, -30.789502084091662, 79.30365511951526, 62.48905709678498 
154.51083623617322, -0.2895173369879082, 21.239552308826475, -29.495689059175618, 79.70215981149879, 62.487444235695364 
153.5800893934088, -0.3821054713451358, 21.239549774374293, -28.064524252165874, 80.09120142604654, 62.48592627210869 
152.64875424846304, -0.4687541654375345, 21.23954676949924, -26.48318530408954, 80.46952323857177, 62.48450402544681 
151.7168656975272, -0.5494368769481341, 21.239543421249223, -24.738148091446867, 80.83570249791597, 62.48317826472001 
150.7844596645129, -0.624128826650274, 21.23953984860528, -22.815452854135412, 81.18813338136952, 62.48194970786147 
149.85157303435733, -0.6928070194594186, 21.239536162298915, -20.701128099470356, 81.5250121514534, 62.480819021105475 
148.9182435845821, -0.7554502641421812, 21.239532464642355, -18.381818726375034, 81.84432701760619, 62.479786818409075 
147.98450991521307, -0.8120391916269585, 21.239528849371787, -15.84566357867863, 82.14385620058147, 62.47885366091857 
147.0504113771768, -0.8625562718643884, 21.239525401503847, -13.083454270606946, 82.42117875359288, 62.478020056481014 
146.11598799929325, -0.9069858291893552, 21.239522197205574, -10.09007414524696, 82.67370356189329, 62.477286459202 
145.18128041399333, -0.9453140561405872, 21.23951930367792, -6.866156574274722, 82.89872218363526, 62.47665326904923 
144.24632978189192, -0.9775290256979509, 21.239516779053055, -3.419813516675234, 83.09349018998404, 62.47612083150345 
143.3111777153546, -1.003620701901954, 21.239514672305617, 0.23182128613474803, 83.25533874420985, 62.475689437256584 
142.37586620119882, -1.0235809488246304, 21.239513023177885, 4.061585013611635, 83.38181294224096, 62.47535932195744 
141.4404375226745, -1.0374035378656223, 21.239511862119116, 8.032198683751442, 83.47082631474395, 62.475130666005505 
140.50493418087285, -1.0450841533520636, 21.239511210239108, 12.097403702553148, 83.52081346709508, 62.47500359439319 
139.56939881571316, -1.0466203964259233, 21.23951107927596, 16.204405523556748, 83.53085783892247, 62.47497817659616 
138.6338741266606, -1.0420117872073467, 21.239511471578204, 20.29738890402868, 83.50077188175948, 62.47505442651254 
137.69840279332854, -1.0312597652276332, 21.239512380101175, 24.321560889372066, 83.43111395950332, 62.475232302450934 
136.76302739611927, -1.0143676881305914, 21.23951378841779, 28.227012952055194, 83.32313852820002, 62.47551170716657 
135.82779033705714, -0.9913408286461203, 21.239515670743597, 31.971751037848076, 83.17868961243477, 62.47589248794688 
134.8927337609676, -0.9621863698448178, 21.239517991976143, 35.523493851988235, 83.00005759578717, 62.476374436744884 
133.95789947715284, -0.9269133986876448, 21.239520707748486, 38.86017024380817, 82.78982299103075, 62.476957290361476 
133.02332888171483, -0.8855328978894828, 21.239523764497022, 41.96932581946635, 82.55070820907537, 62.47764073067553 
132.089062880671, -0.8380577361203653, 21.2395270995432, 44.8467996619282, 82.28545175168917, 62.478424384922135 
131.15514181400675, -0.7845026565729052, 21.23953064118932, 47.49504979526827, 81.99671169768274, 62.47930782601805 
130.22160538080396, -0.7248842639291853, 21.23953430882814, 49.9214346468274, 81.68699906411726, 62.48029057293451 
129.28849256557996, -0.6592210097646637, 21.23953801306615, 52.13665193099065, 81.35863756849925, 62.48137209111665 
128.35584156596647, -0.5875331764311998, 21.239541655860368, 54.153436575016535, 81.01374443240398, 62.482551792948875 
127.42368972185311, -0.5098428594652433, 21.239545130668514, 55.985545001322016, 80.65422657074505, 62.4838290382661 
126.49207344611274, -0.4261739485712735, 21.239548322612276, 57.647007471317224, 80.2817871326352, 62.48520313490948 
125.56102815702036, -0.3365521072342556, 21.239551108653593, 59.151608005050534, 79.89793836393679, 62.48667333932687 
124.63058821247041, -0.24100475101825244, 21.23955335778351, 60.51254494888429, 79.50401780820457, 62.48823885721634 
123.70078684608912, -0.13956102461178407, 21.239554931223587, 61.74222776206308, 79.10120577883706, 62.48989884421278 
122.7716561053324, -0.03225177768320878, 21.23955568263942, 62.8521721750715, 78.69054275989605, 62.49165240661591 
121.84322679165109, 0.08089046038770169, 21.239555458366105, 63.852963567663096, 78.27294592741112, 62.49349860215991 
120.91552840279752, 0.19983150683336862, 21.239554097645247, 64.75426565998308, 77.8492243558366, 62.495436440822324 
119.98858907733953, 0.32453555280666546, 21.239551432873302, 65.56485774464359, 77.42009272193417, 62.497464885672706 
119.06243554143965, 0.45496519160105825, 21.239547289860848, 66.29268855710713, 76.98618347457688, 62.499582853758895 
118.13709305794909, 0.5910814477086043, 21.239541488102475, 66.94493858117617, 76.54805753154297, 62.50178921703021 
117.21258537785722, 0.7328438066403058, 21.239533841056943, 67.52808530713624, 76.10621361431892, 62.50408280329693 
116.28893469413013, 0.8802102454322467, 21.239524156437188, 68.04796790987417, 75.6610963544092, 62.50646239722393 
115.36616159796246, 1.0331372637603726, 21.23951223650989, 68.50984918051846, 75.21310331015364, 62.50892674135805 
114.4442850374594, 1.191579915586136, 21.239497878404084, 68.91847348221535, 74.76259102862394, 62.51147453718798 
113.52332227875749, 1.3554918412550878, 21.23948087442856, 69.27812012901678, 74.30988027740112, 62.51410444623467 
112.60328886958548, 1.5248252999705665, 21.239461012397424, 69.59265199717554, 73.8552605588244, 62.51681509117194 
111.68419860525857, 1.6995312025648337, 21.239438075963637, 69.86555943694206, 73.39899400641384, 62.51960505697528 
110.76606349709229, 1.8795591444907973, 21.23941184495988, 70.09999970811965, 72.9413187506289, 62.52247289209779 
109.8488937432159, 2.0648574389578944, 21.239382095746386, 70.29883224810614, 72.482451829479, 62.52541710967169 
108.93269770175745, 2.255373150137033, 21.239348601565386, 70.46465012068617, 72.02259170900152, 62.528436188734425 
108.01748186636775, 2.4510521263604255, 21.239311132901435, 70.59980800386148, 71.56192046933987, 62.53152857547738 
107.10325084404319, 2.6518390332438297, 21.2392694578474, 70.70644706674427, 71.10060570405928, 62.53469268451627 
106.1900073352034, 2.857677386659964, 21.239223342475533, 70.7865170665516, 70.63880217334638, 62.53792690018135 
105.27775211597286, 3.068509585493948, 21.239172551213105, 70.8417959720621, 70.17665324573925, 62.54122957782629 
104.36648402261284, 3.284276944113232, 21.239116847222117, 70.87390739279259, 69.71429215791265, 62.5445990451542 
103.45619993804392, 3.5049197244867294, 21.23905599278272, 70.8843360657039, 69.25184311768295, 62.548033603558984 
102.54689478039691, 3.73037716788993, 21.23898974967958, 70.8744416247101, 68.78942227169291, 62.55153152948103 
101.6385614935259, 3.960587526135007, 21.238917879590982, 70.84547085336823, 68.32713855609585, 62.555091075775294 
100.73119103941426, 4.195488092267512, 21.23884014447991, 70.79856859823279, 67.86509444589224, 62.55871047309053 
99.82477239240225, 4.435015230673375, 21.238756306986698, 70.73478749960236, 67.4033866163152, 62.562387931258115 
98.91929253516228, 4.679104406542809, 21.2386661308228, 70.65509667776341, 66.94210652774257, 62.566121640688856 
98.01473645634682, 4.927690214639937, 21.238569381165014, 70.56038949624944, 66.4813409439888, 62.56990977377623 
97.11108714983197, 5.180706407330001, 21.238465825049772, 70.4514905089432, 66.02117239244636, 62.57375048630499 
96.20832561547994, 5.438085921818175, 21.23835523176687, 70.32916168489308, 65.56167957337165, 62.577641918862795 
95.30643086134192, 5.6997609065571595, 21.23823737325224, 70.19410799331874, 65.10293772460864, 62.58158219825435 
94.40537990722443, 5.965662746783017, 21.238112024479108, 70.04698242128188, 64.64501894718947, 62.58556943891578 
93.50514778954067, 6.2357220891417064, 21.237978963847183, 69.88839048773477, 64.18799249652152, 62.5896017443282 
92.60570756737148, 6.509868865371145, 21.23783797356921, 69.71889430998861, 63.73192504324607, 62.59367720842891 
91.70703032965926, 6.788032315006515, 21.237688840054492, 69.53901627193117, 63.276880907318706, 62.59779391701857 
90.80908520346131, 7.070141007079125, 21.237531354288794, 69.34924233745136, 62.82292226840148, 62.60194994916335 
89.91183936319041, 7.356122860781417, 21.237365312210216, 69.15002504739155, 62.37010935526282, 62.60614337859022 
89.01525804077183, 7.645905165073786, 21.237190515080442, 68.94178623385181, 61.91850061653933, 62.61037227507426 
88.11930453664971, 7.9394145972107975, 21.237006769850982, 68.72491948173443, 61.46815287492103, 62.61463470581636 
87.22394023157716, 8.236577240167378, 21.236813889523805, 68.49979236396771, 61.01912146656636, 62.618928736810254 
86.32912459912819, 8.537318598947378, 21.23661169350601, 68.26674847382439, 60.57146036733433, 62.623252434197425 
85.43481521887243, 8.841563615759805, 21.23640000795794, 68.02610927509612, 60.125222307229215, 62.6276038656083 
84.54096779015744, 9.149236684049795, 21.23617866613438, 67.77817578855482, 59.68045887428803, 62.6319811014891 
83.64753614644653, 9.460261661373945, 21.23594750871839, 67.5232301310825, 59.23722060899614, 62.636382216412336 
82.75447227016451, 9.774561881111591, 21.235706384147154, 67.2615369220474, 58.795557090190364, 62.64080529037025 
81.86172630800787, 10.09206016300562, 21.23545514892974, 66.99334456991532, 58.35551701329905, 62.64524841005012 
80.9692465866796, 10.412678822528791, 21.235193667955958, 66.71888645068279, 57.91714826167209, 62.6497096700893 
80.07697962901459, 10.736339679072863, 21.234921814796202, 66.43838198848182, 57.480497971669436, 62.654187174310366 
79.18487017046462, 11.062964062960447, 21.234639471991816, 66.15203764761067, 57.04561259210274, 62.65867903693375 
78.29286117591896, 11.392472821280574, 21.234346531335362, 65.86004784427696, 56.61253793855928, 62.66318338376798 
77.40089385683923, 11.724786322551525, 21.234042894140856, 65.56259578548107, 56.18131924308028, 62.66769835337581 
76.50890768869492, 12.05982446021536, 21.233728471503106, 65.25985424170585, 55.75200119961485, 62.67222209821535 
75.61684042868883, 12.397506654971144, 21.233403184546162, 64.9519862594027, 55.32462800562624, 62.676752785755475 
74.72462813376956, 12.737751855954638, 21.23306696466043, 64.63914581866187, 54.89924340018744, 62.68128859956434 
73.83220517893236, 13.080478540774507, 21.23271975372803, 64.32147844091999, 54.47589069886831, 62.6858277403702 
72.93950427581542, 13.425604714416322, 21.23236150433623, 63.999121751079194, 54.054612825685155, 62.69036842709369 
72.04645649160648, 13.773047907027163, 21.23199217997858, 63.672205997987504, 53.63545234235609, 62.694908897850624 
71.15299126827766, 14.12272517059541, 21.231611755243446, 63.340854536848, 53.21845147508129, 62.69944741092478 
70.25903644217644, 14.47455307454144, 21.23122021598976, 63.005184276784895, 52.80365213904487, 62.70398224570976 
69.36451826400328, 14.828447700236959, 21.23081755950964, 62.6653060964886, 52.39109596081611, 62.70851170361913 
68.46936141921638, 15.184324634471652, 21.230403794677688, 62.32132523058943, 51.98082429881, 62.71303410896441 
