# MEX_intpoint_lon [deg], MEX_intpoint_lat [deg], MEX_intpoint_angle [deg], TGO_intpoint_lon [deg], TGO_intpoint_lat [deg], TGO_intpoint_angle [deg] 
-139.5085799092381, 19.635340768583568, 21.90705351674729, -27.303755289516854, 39.29896909302721, 62.93662619392677 
-140.3948129523822, 19.22588960994638, 21.90767058363571, -27.550976620190696, 39.71436648635708, 62.931926165878075 
-141.2794228641543, 18.817613530463273, 21.908275016006364, -27.792706297561082, 40.132205442106184, 62.927186840682936 
-142.1625166215827, 18.41060714854287, 21.908866644979803, -28.02883631652617, 40.552424727371026, 62.92240971081994 
-143.04419946168028, 18.0049644200311, 21.90944531698499, -28.259254568127737, 40.97496247865012, 62.91759631721991 
-143.92457486419417, 17.600778663984144, 21.910010893774075, -28.48384462225315, 41.39975616651085, 62.91274824872709 
-144.80374453526153, 17.198142587315424, 21.910563252418704, -28.702485500100114, 41.82674255769861, 62.90786714150263 
-145.68180839182023, 16.797148308284754, 21.911102285287935, -28.9150514358541, 42.2558576745526, 62.902954678371074 
-146.5588645466373, 16.397887378798742, 21.91162790000772, -29.121411627001365, 42.68703675158246, 62.89801258810961 
-147.43500929382697, 16.00045080549417, 21.912140019402187, -29.321429972672593, 43.12021418904933, 62.89304264468089 
-148.31033709474417, 15.60492906957691, 21.912638581416783, -29.514964799383986, 43.55532350338361, 62.88804666640953 
-149.18494056414704, 15.211412145391096, 21.91312353902337, -29.701868573514567, 43.992297274259116, 62.88302651510265 
-150.05891045653402, 14.819989517694301, 21.91359486010755, -29.881987599830236, 44.4310670881304, 62.87798409511553 
-150.93233565257103, 14.430750197615755, 21.914052527338207, -30.055161705337625, 44.87156347802605, 62.872921352362056 
-151.80530314553278, 14.043782737276121, 21.914496538019737, -30.221223907723637, 45.31371585937524, 62.86784027327139 
-152.67789802769306, 13.659175243048251, 21.91492690392695, -30.380000067611398, 45.75745246162931, 62.86274288369132 
-153.55020347660636, 13.277015387439697, 21.915343651122964, -30.53130852383942, 46.202700255422336, 62.85763124773869 
-154.42230074123336, 12.897390419578564, 21.915746819760432, -30.674959710949683, 46.64938487499698, 62.8525074665982 
-155.29426912787036, 12.520387174285723, 21.916136463866312, -30.810755758052284, 47.09743053560172, 62.84737367727017 
-156.16618598585166, 12.146092079717155, 21.916512651110445, -30.938490068221327, 47.546759945545126, 62.84223205126838 
-157.03812669300163, 11.774591163561533, 21.916875462558355, -31.057946877567787, 47.99729421257081, 62.83708479326884 
-157.91016464082116, 11.405970057778939, 21.917224992408585, -31.16890079313473, 48.44895274419292, 62.83193413971043 
-158.7823712194008, 11.040314001868309, 21.91756134771487, -31.271116308766523, 48.901653141607525, 62.82678235734899 
-159.654815802061, 10.677707844651563, 21.917884648093608, -31.364347298121846, 49.35531108676902, 62.82163174176528 
-160.52756572972592, 10.318236044564465, 21.918195025417, -31.448336484029962, 49.80984022219297, 62.816484615829026 
-161.4006862950459, 9.961982668444996, 21.918492623492206, -31.522814883434773, 50.26515202301797, 62.81134332811923 
-162.27424072628958, 9.60903138881148, 21.918777597727072, -31.587501227235286, 50.72115566082895, 62.80621025130306 
-163.14829017103384, 9.259465479624422, 21.919050114782763, -31.64210135441559, 51.17775785871247, 62.801087780474006 
-164.02289367968675, 8.91336781052718, 21.919310352213845, -31.686307579969696, 51.63486273698246, 62.79597833145134 
-164.89810818888427, 8.570820839562614, 21.91955849809619, -31.71979803626836, 52.092371648980766, 62.79088433904196 
-165.7739885048093, 8.231906604364129, 21.919794750643394, -31.742235987694603, 52.55018300632282, 62.78580825526646 
-166.65058728648583, 7.896706711821957, 21.92001931781192, -31.75326911859652, 53.00819209292392, 62.78075254755061 
-167.5279550291088, 7.565302326226863, 21.920232416895807, -31.75252879487965, 53.46629086710718, 62.775719696884856 
-168.4061400474749, 7.23777415589603, 21.920434274111226, -31.73962929989412, 53.924367751059364, 62.770712195952456 
-169.28518845958553, 6.914202438287823, 21.920625124171593, -31.714167045674362, 54.38230740686824, 62.765732547228744 
-170.16514417049834, 6.594666923614465, 21.920805209853697, -31.675719761074536, 54.83999049834416, 62.760783261053284 
-171.04604885650969, 6.2792468569641, 21.920974781555465, -31.623845658921326, 55.29729343780005, 62.75586685367648 
-171.92794194975318, 5.968020958946488, 21.921134096845904, -31.5580825849963, 55.754088116940366, 62.750985845282806 
-172.81086062330726, 5.661067404878892, 21.921283420007896, -31.477947152476332, 56.21024162099169, 62.74614275799279 
-173.6948397769061, 5.358463802531768, 21.921423021574316, -31.38293386642562, 56.66561592519727, 62.74134011384533 
-174.57991202335384, 5.060287168456932, 21.92155317785815, -31.272514244064983, 57.12006757279704, 62.73658043276277 
-175.46610767574592, 4.7666139029234005, 21.921674170477306, -31.146135937872135, 57.57344733362736, 62.73186623050065 
-176.3534547356036, 4.4775197634899335, 21.921786285874553, -31.003221870113446, 58.025599842502196, 62.72720001658448 
-177.24197888203182, 4.19307983724605, 21.921889814833385, -30.843169389207333, 58.47636321658558, 62.72258429223534 
-178.1317034620124, 3.9133685117567762, 21.921985051990344, -30.665349460401906, 58.925568651037096, 62.718021548286984 
-179.02264948194806, 3.638459444749989, 21.92207229534452, -30.469105905651595, 59.373039992314006, 62.71351426309615 
-179.91483560057213, 3.3684255325885037, 21.92215184576474, -30.253754710336466, 59.818593288651144, 62.70906490044903 
179.19172187665743, 3.1033388775728223, 21.922224006495295, -30.018583417621542, 60.26203631742086, 62.70467590746532 
178.29700900156138, 2.8432707541238784, 21.922289082660587, -29.762850634843094, 60.70316808930865, 62.7003497125031 
177.401014185522, 2.5882915738990953, 21.922347380769597, -29.48578568037095, 61.14177832953397, 62.696088723066126 
176.5037281999261, 2.3384708498984224, 21.922399208220686, -29.186588403965587, 61.57764693671407, 62.69189532371629 
175.6051441746515, 2.093877159621048, 21.922444872807326, -28.86442921875729, 62.0105434204208, 62.68777187399366 
174.70525759448063, 1.8545781073369072, 21.9224846822256, -28.51844938863746, 62.44022631903327, 62.68372070634603 
173.8040662933269, 1.6206402855410222, 21.92251894358394, -28.147761621078168, 62.86644260015605, 62.67974412407102 
172.90157044616316, 1.392129235662099, 21.92254796291578, -27.751451022164296, 63.28892704667267, 62.67584439927247 
171.99777255854343, 1.1691094081005626, 21.922572044695805, -27.328576477890774, 63.70740163245251, 62.67202377083424 
171.09267745361436, 0.9516441216746253, 21.922591491360514, -26.878172533459054, 64.12157489284697, 62.66828444241295 
170.18629225651625, 0.7397955225561759, 21.922606602833408, -26.399251850266968, 64.53114129641568, 62.664628580452906 
169.27862637607947, 0.5336245427818198, 21.92261767605585, -25.8908083283246, 64.93578062583266, 62.66105831222503 
168.36969148372793, 0.3331908584272107, 21.922625004523912, -25.351820989665, 65.33515737765137, 62.65757572389232 
167.45950148950732, 0.13855284753584338, 21.922628877831897, -24.781258725570957, 65.7289201925708, 62.6541828586042 
166.5480725151632, -0.050232452103870104, 21.9226295812232, -24.178086016611243, 66.11670133004155, 62.65088171462234 
165.63542286420216, -0.23310938523693975, 21.922627395149025, -23.541269738934666, 66.49811620348498, 62.64767424347966 
164.7215729888766, -0.4100237213770089, 21.922622594835524, -22.86978717221809, 66.87276299504694, 62.64456234817555 
163.8065454540443, -0.5809226968978952, 21.92261544986006, -22.162635323144592, 67.24022237164151, 62.64154788140887 
162.89036489786147, -0.7457550568793047, 21.922606223736967, -21.418841672168572, 67.600057327003, 62.638632643851395 
161.97305798927948, -0.9044710966032125, 21.922595173513457, -20.637476439303573, 67.95181317747387, 62.63581838246379 
161.054653382325, -1.0570227025963022, 21.92258254937629, -19.81766644530714, 68.29501774219722, 62.633106788856175 
160.13518166715522, -1.2033633931130843, 21.922568594269467, -18.958610616403913, 68.62918174110304, 62.630499497695475 
159.21467531788966, -1.343448357954302, 21.922553543523772, -18.05959714205169, 68.95379944637924, 62.62799808516131 
158.29316863723287, -1.4772344975148333, 21.922537624498396, -17.120022244806062, 69.26834962476025, 62.62560406745302 
157.37069769791367, -1.6046804609561802, 21.92252105623524, -16.139410457967855, 69.57229680866078, 62.623318899349165 
156.44730028097922, -1.7257466833991115, 21.92250404912633, -15.117436229816079, 69.86509293359718, 62.621143972821564 
155.52301581099292, -1.8403954220335697, 21.92248680459482, -14.05394658304572, 70.14617937711955, 62.61908061570585 
154.5978852881999, -1.9485907910443574, 21.922469514789885, -12.948984455852909, 70.41498943024615, 62.617130090430216 
153.6719512177336, -2.050298795253465, 21.922452362296085, -11.802812239663794, 70.67095122579558, 62.6152935928037 
152.74525753595105, -2.1454873623822377, 21.922435519857398, -10.615934912212227, 70.91349113874588, 62.613572250866326 
151.81784953399548, -2.2341263738395236, 21.922419150116472, -9.389122049858809, 71.14203766160804, 62.61196712380162 
150.8897737786971, -2.316187693945428, 21.922403405369277, -8.123427897974246, 71.35602574273526, 62.61047920091415 
149.9610780309348, -2.391645197503857, 21.92238842733561, -6.820208592901655, 71.55490155765638, 62.609109400672395 
149.03181116159186, -2.460474795641371, 21.922374346945652, -5.481135574746456, 71.73812766334649, 62.607858569818724 
148.10202306525014, -2.522654459834269, 21.922361284142944, -4.108204218721548, 71.90518846355401, 62.60672748254791 
147.1717645717774, -2.5781642440508263, 21.922349347704028, -2.70373675493598, 72.05559589093907, 62.60571683975453 
146.24108735597198, -2.6269863049407984, 21.922338635074937, -1.2703786510371076, 72.18889519018578, 62.60482726835111 
145.31004384543715, -2.669104920009927, 21.92232923222478, 0.1889121961936655, 72.3046706670172, 62.60405932065756 
144.37868712686736, -2.704506503723115, 21.922321213516703, 1.670883875962037, 72.40255125287543, 62.6034134738624 
143.4470708509348, -2.7331796214859607, 21.922314641596216, 3.1720166034410506, 72.48221572561819, 62.602890129557096 
142.5152491359711, -2.755115001460994, 21.92230956729724, 4.688556360302776, 72.54339742439556, 62.60248961334392 
141.58327647064604, -2.77030554418136, 21.922306029565828, 6.2165554452329435, 72.58588830296938, 62.60221217451774 
140.6512076158484, -2.778746329931699, 21.92230405540174, 7.751918980171171, 72.60954218058895, 62.6020579858221 
139.71909750597905, -2.7804346238728774, 21.922303659817967, 9.290456086088733, 72.61427707289072, 62.60202714328058 
138.78700114986827, -2.7753698788943244, 21.922304845818257, 10.827934170709703, 72.60007651612054, 62.60211966610252 
137.85497353153204, -2.763553736184965, 21.92230760439254, 12.360134584524378, 72.56698983453089, 62.60233549666446 
136.92306951098197, -2.744990023520901, 21.9223119145305, 13.882907818364005, 72.51513134075043, 62.60267450056642 
135.99134372530403, -2.719684751275299, 21.922317743253046, 15.392226443727361, 72.44467849956094, 62.6031364667633 
135.0598504902188, -2.687646106163094, 21.92232504566178, 16.884234133263316, 72.35586912408678, 62.603721107771484 
134.1286437023354, -2.648884442740376, 21.922333765006346, 18.355289330268224, 72.24899770735536, 62.604428059949676 
133.19777674230633, -2.6034122726851985, 21.92234383276955, 19.802002441156525, 72.12441101945397, 62.60525688385418 
132.26730237908663, -2.5512442518936296, 21.922355168770224, 21.22126577637688, 71.9825031196919, 62.60620706466807 
131.33727267549642, -2.492397165431506, 21.92236768128356, 22.610275833762316, 71.82370994363495, 62.60727801270329 
130.40773889527796, -2.4268899103889523, 21.922381267178935, 23.9665478756733, 71.6485036267366, 62.608469063975434 
129.478751411833, -2.354743476690932, 21.922395812074775, 25.28792307352156, 71.45738672032667, 62.609779480850165 
128.55035961881788, -2.2759809259232493, 21.922411190510644, 26.572568762489666, 71.25088644322933, 62.61120845276052 
127.6226118427639, -2.190627368239047, 21.922427266135877, 27.818972554691996, 71.02954909486448, 62.61275509699406 
126.69555525788415, -2.0987099374164067, 21.922443891914906, 29.025931196833238, 70.79393473506492, 62.614418459548844 
125.76923580321441, -2.000257764142601, 21.92246091034875, 30.19253513088127, 70.54461221367875, 62.61619751605701 
124.84369810222861, -1.8953019476053519, 21.922478153712444, 31.31814973032688, 70.28215461079591, 62.61809117277486 
123.91898538505582, -1.7838755254757839, 21.922495444308165, 32.40239415026276, 70.00713512734374, 62.620098267638056 
122.9951394134161, -1.6660134423717543, 21.92251259473363, 33.44511865826686, 69.72012344672035, 62.622217571380276 
122.07220040837996, -1.5417525168936836, 21.922529408165428, 34.44638121653923, 69.42168257165014, 62.624447788714484 
121.150206981044, -1.4111314073282983, 21.92254567865696, 35.40642397465047, 69.11236612683633, 62.62678755957429 
120.2291960662043, -1.274190576118248, 21.92256119145052, 36.32565021579432, 68.79271610729886, 62.629235460414755 
119.30920285909531, -1.1309722531980952, 21.92257572330315, 37.204602184900665, 68.46326104438737, 62.63179000557031 
118.39026075525088, -0.9815203982987452, 21.92258904282587, 38.0439401197117, 68.12451455608806, 62.63444964866796 
117.47240129353143, -0.8258806623241807, 21.922600910835715, 38.844422709500215, 67.77697424506344, 62.63721278409464 
116.55565410234867, -0.6641003479051215, 21.922611080720237, 39.60688912248824, 67.42112090650846, 62.64007774851573 
115.64004684910812, -0.4962283692350563, 21.92261929881397, 40.33224267292955, 67.05741800800438, 62.64304282244384 
114.72560519287714, -0.3223152112942734, 21.922625304786287, 41.02143614201967, 66.68631140475938, 62.6461062318549 
113.81235274027529, -0.14241288856730958, 21.922628832040182, 41.67545872241797, 66.30822925562924, 62.649266149850355 
112.90031100457229, 0.04342509664106193, 21.922629608121508, 42.29532452291783, 65.9235821078504, 62.65252069836277 
111.98949936796885, 0.23514379618737669, 21.922627355138033, 42.882062546197794, 65.53276312126997, 62.65586794990264 
111.07993504702435, 0.43268685826551784, 21.922621790187822, 43.436708037082944, 65.13614840584933, 62.65930592934483 
110.17163306118678, 0.6359965696759216, 21.922612625796344, 43.96029508984693, 64.73409744921634, 62.66283261575146 
109.26460620437011, 0.845013898088409, 21.92259957036181, 44.453850399418954, 64.32695361394751, 62.666445944230055 
108.35886501951647, 1.059678534201122, 21.922582328608016, 44.91838804170331, 63.915044687008645, 62.670143807823585 
107.45441777607171, 1.2799289337005533, 21.92256060204423, 45.35490517153147, 63.49868346632615, 62.6739240594309 
106.55127045029602, 1.5057023589300658, 21.922534089431448, 45.76437853216678, 63.07816837177855, 62.67778451375491 
105.64942670832419, 1.7369349201772615, 21.922502487254437, 46.1477616770667, 62.653784069976716, 62.68172294927569 
104.748887891884, 1.9735616164934437, 21.922465490198896, 46.50598281220479, 62.225802104047254, 62.68573711024732 
103.84965300657544, 2.2155163759616188, 21.92242279163321, 46.8399431752337, 61.794481521249665, 62.68982470871461 
102.95171871260916, 2.462732095332789, 21.922374084093992, 47.15051587579863, 61.36006949266432, 62.693983426548456 
102.05507931789768, 2.715140678953613, 21.92231905977503, 47.43854512915293, 60.92280192039582, 62.69821091749689 
101.1597267733894, 2.9726730769122462, 21.922257411018713, 47.7048458227153, 60.482904028767884, 62.702504809249426 
100.265650670533, 3.2352593223324644, 21.92218883080952, 47.95020336223439, 60.04059093685791, 62.706862705512755 
99.37283824075688, 3.5028285677501056, 21.922113013268827, 48.175373750727296, 59.596068210449815, 62.71128218809466 
98.4812743568468, 3.775309120509326, 21.922029654150325, 48.38108385930363, 59.149532392092695, 62.715760818994376 
97.59094153610368, 4.052628477120135, 21.92193845133561, 48.56803185437071, 58.70117150845226, 62.720296142496984 
96.70181994516342, 4.334713356521976, 21.921839105329006, 48.73688775055138, 58.25116555455207, 62.724885687269214 
95.81388740635923, 4.621489732202345, 21.921731319751228, 48.888294062958174, 57.79968695482929, 62.72952696845417 
94.92711940550986, 4.912882863122521, 21.921614801831094, 49.02286653628812, 57.346901001194446, 62.734217489763715 
94.04148910101527, 5.208817323406633, 21.92148926289473, 49.14119493156981, 56.892966268487925, 62.73895474556463 
93.1569673341453, 5.509217030753333, 21.92135441885152, 49.24384385434547, 56.43803500788698, 62.74373622295773 
92.2735226404074, 5.8140052735332715, 21.921209990676306, 49.33135361064649, 55.98225351893398, 62.74855940384691 
91.39112126188208, 6.123104736538705, 21.92105570488706, 49.40424107935862, 55.525762500943586, 62.75342176699618 
90.5097271604186, 6.436437525354795, 21.920891294017544, 49.463000591510195, 55.06869738460609, 62.758320790072595 
89.62930203158474, 6.753925189325795, 21.920716497084225, 49.50810480868521, 54.611188644640656, 62.763253951672496 
88.74980531927, 7.07548874309178, 21.920531060046905, 49.54000559419789, 54.15336209437284, 62.76821873333002 
87.87119423084411, 7.401048686675204, 21.92033473626247, 49.55913487189144, 53.69533916311542, 62.77321262150451 
86.99342375277772, 7.730525024098899, 21.920127286931034, 49.565905468469815, 53.2372371572266, 62.77823310954589 
86.11644666663578, 8.063837280520326, 21.919908481534122, 49.56071193615926, 52.779169505704324, 62.7832776996355 
85.24021356536042, 8.400904517869096, 21.919678098264082, 49.543931353247324, 52.32124599115536, 62.788343904700724 
84.36467286976313, 8.741645348977691, 21.919435924444368, 49.51592410067994, 51.86357296695082, 62.793429250301315 
83.48977084515298, 9.085977950197345, 21.919181756939924, 49.47703461342698, 51.406253561350454, 62.79853127648603 
82.61545161803257, 9.43382007249345, 21.918915402557346, 49.42759210576926, 50.94938786934616, 62.80364753961719 
81.74165719279837, 9.785089051017177, 21.918636678434186, 49.36791127002621, 50.49307313294059, 62.80877561416219 
80.86832746838944, 10.139701813151449, 21.918345412416816, 49.2982929485459, 50.03740391054325, 62.81391309444964 
79.99540025483283, 10.497574885032122, 21.918041443426493, 49.21902477902529, 49.582472236130755, 62.81905759638902 
79.12281128964234, 10.85862439654616, 21.917724621813125, 49.13038181342912, 49.12836776878405, 62.824206759152034 
78.25049425403095, 11.222766084811019, 21.917394809696063, 49.03262711093516, 48.67517793318088, 62.8293582468143 
77.37838078890701, 11.58991529614049, 21.91705188129178, 48.926012305460304, 48.22298805158915, 62.83450974995575 
76.50640051062813, 11.959986986504076, 21.916695723227715, 48.81077814841936, 47.771881467874174, 62.83965898721881 
75.63448102649556, 12.33289572048826, 21.91632623484209, 48.68715502744298, 47.3219396640025, 62.84480370682251 
74.76254794997809, 12.70855566876931, 21.915943328469083, 48.55536346183412, 46.87324236949505, 62.849941688031514 
73.8905249156615, 13.086880604108758, 21.915546929709127, 48.41561457558077, 46.425867664253815, 62.85507074257902 
73.01833359392813, 13.4677838958835, 21.915136977683897, 48.26811054876516, 45.979892075160265, 62.860188716042096 
72.14589370537708, 13.851178503164075, 21.914713425275693, 48.113045048222496, 45.53539066681717, 62.86529348916854 
71.27312303500507, 14.236976966355424, 21.91427623935072, 47.95060363830428, 45.092437126782215, 62.870382979154236 
70.39993744617445, 14.625091397415805, 21.9138254009662, 47.780964172596924, 44.651103845618486, 62.87545514086993 
