# MEX_intpoint_lon [deg], MEX_intpoint_lat [deg], MEX_intpoint_angle [deg], TGO_intpoint_lon [deg], TGO_intpoint_lat [deg], TGO_intpoint_angle [deg] 
-139.0619104488492, 19.531107286042854, 21.599085193051895, -27.598393891520615, 43.01506695637594, 62.85645035577355 
-139.9583358302582, 19.13805102460146, 21.599666063242935, -27.89988001876969, 43.417973256154774, 62.85183753175961 
-140.85313701852223, 18.746077817755616, 21.600235448348904, -28.19669718065783, 43.82350470346933, 62.84719216930706 
-141.74641421273643, 18.3552808066352, 21.60079318877115, -28.48874924115675, 44.23161031111056, 62.84251572570737 
-142.6382660823789, 17.965752476597658, 21.601339138825242, -28.77593611126312, 44.64223868077641, 62.83780969857902 
-143.52878974343653, 17.577584678934688, 21.60187316675618, -29.058153517814464, 45.05533797979108, 62.833075625351455 
-144.41808073570598, 17.19086865164486, 21.60239515473672, -29.335292759216976, 45.47085591582662, 62.82831508270009 
-145.30623300112745, 16.80569503923585, 21.602904998849105, -29.60724044719779, 45.88873970950639, 62.82352968593393 
-146.19333886302175, 16.422153911521534, 21.60340260905001, -29.873878233628506, 46.308936064760715, 62.81872108833486 
-147.07948900610907, 16.040334781381716, 21.603887909118832, -30.135082521394807, 46.73139113679292, 62.813890980449656 
-147.9647724571995, 15.660326621453693, 21.60436083658961, -30.390724158210794, 47.156050497502804, 62.80904108933477 
-148.8492765664525, 15.282217879727009, 21.60482134266648, -30.640668112193694, 47.582859098200586, 62.80417317775447 
-149.7330869891142, 14.906096494014275, 21.605269392122928, -30.88477312792563, 48.01176122943009, 62.79928904333259 
-150.616287667649, 14.532049905272284, 21.605704963184984, -31.12289136163424, 48.44270047770456, 62.7943905176587 
-151.4989608141897, 14.160165069749663, 21.60612804739857, -31.354867994020125, 48.87561967894009, 62.789479465348904 
-152.38118689324196, 13.790528469938204, 21.606538649481102, -31.58054081914994, 49.31046086835413, 62.784557783062326 
-153.26304460458326, 13.42322612430689, 21.60693678715771, -31.799739807714513, 49.74716522657454, 62.77962739847362 
-154.14461086630791, 13.058343595798481, 21.60732249098221, -32.01228664282511, 50.18567302168276, 62.774690269202054 
-155.025960797975, 12.695965999070518, 21.60769580414313, -32.21799422638432, 50.625923546889496, 62.769748381698925 
-155.9071677038257, 12.336178006463165, 21.608056782255062, -32.416666153922705, 51.06785505351438, 62.7648037500925 
-156.78830305604248, 11.979063852678333, 21.60840549313564, -32.608096155636694, 51.511404678911035, 62.75985841499316 
-157.66943647803043, 11.624707338155348, 21.608742016568417, -32.79206750119719, 51.95650836894669, 62.75491444225826 
-158.5506357277085, 11.2731918311301, 21.609066444052015, -32.96835236572172, 52.40310079460925, 62.749973921718436 
-159.43196668080455, 10.924600268365737, 21.609378878535928, -33.13671115411551, 52.85111526227644, 62.74503896586607 
-160.31349331415515, 10.579015154544646, 21.609679434143143, -33.296891780788165, 53.300483617137715, 62.74011170850738 
-161.19527768901835, 10.23651856031266, 21.609968235880284, -33.44862890154332, 53.751136139213315, 62.73519430337855 
-162.0773799344124, 9.897192118968055, 21.610245419335353, -33.5916430942187, 54.20300143136332, 62.73028892272798 
-162.9598582305017, 9.561117021789656, 21.61051113036366, -33.72563998442398, 54.656006298622316, 62.7253977558651 
-163.8427687920556, 9.228374011999481, 21.6107655247623, -33.850309312485315, 55.11007561813468, 62.72052300767735 
-164.72616585201266, 8.899043377357843, 21.61100876793362, -33.96532393745936, 55.56513219889624, 62.71566689711685 
-165.6101016451881, 8.573204941389749, 21.611241034538164, -34.07033877382831, 56.021096630435274, 62.71083165565769 
-166.4946263921684, 8.250938053244116, 21.611462508137475, -34.1649896562349, 56.47788711948342, 62.70601952572545 
-167.37978828344157, 7.9323215761885795, 21.61167338082729, -34.248892127364805, 56.935419313599205, 62.701232759100634 
-168.26563346381727, 7.617433874745298, 21.611873852861596, -34.32164014384054, 57.393606110609056, 62.69647361529687 
-169.1522060171963, 7.306352800474908, 21.612064132268095, -34.382804694761596, 57.85235745262558, 62.69174435991626 
-170.03954795175272, 6.999155676418147, 21.61224443445543, -34.431932327319686, 58.31158010328697, 62.68704726298277 
-170.92769918559762, 6.695919280206985, 21.61241498181291, -34.4685435737466, 58.77117740673619, 62.682384597255464 
-171.81669753299678, 6.396719825859631, 21.612576003303104, -34.49213127373019, 59.23104902672225, 62.67775863652355 
-172.70657869121902, 6.101632944276098, 21.61272773404783, -34.502158786378935, 59.69109066405833, 62.67317165388423 
-173.5973762280962, 5.810733662453656, 21.612870414908226, -34.498058085851135, 60.1511937505129, 62.668625920006 
-174.48912157037836, 5.524096381444474, 21.613004292059323, -34.479227734917544, 60.61124511703751, 62.664123701378244 
-175.38184399297128, 5.241794853080036, 21.613129616559675, -34.44503073103375, 61.0711266340533, 62.659667258549504 
-176.27557060914677, 4.963902155490292, 21.613246643916767, -34.39479222000162, 61.530714821321915, 62.65525884435606 
-177.17032636181753, 4.690490667448071, 21.613355633648556, -34.32779707305357, 61.98988042472108, 62.65090070214247 
-178.06613401597198, 4.421632041572474, 21.613456848841835, -34.24328732426238, 62.44848795702896, 62.64659506397643 
-178.963014152365, 4.157397176427864, 21.61355055570809, -34.140459466645524, 62.906395199597945, 62.6423441488592 
-179.860985162562, 3.8978561875584985, 21.61363702313715, -34.01846160729154, 63.36345266156947, 62.638150160933954 
179.23993675456438, 3.6430783775015763, 21.613716522249614, -33.876390484407786, 63.81950299305358, 62.6340152876939 
178.33973759478636, 3.3931322048249712, 21.613789325948158, -33.71328835251499, 64.27438034847374, 62.62994169819219 
177.4384055488228, 3.1480852522390403, 21.613855708468858, -33.52813974626848, 64.72790969606801, 62.62593154125503 
176.5359310008918, 2.908004193835008, 21.613915944932593, -33.319868138772975, 65.17990606935535, 62.62198694370097 
175.63230652541648, 2.6729547615057903, 21.61397031089752, -33.08733251702407, 65.6301737562305, 62.61811000856722 
174.72752688178812, 2.443001710608088, 21.614019081912907, -32.82932390554292, 66.07850542126695, 62.61430281334617 
173.82158900709211, 2.2182087849279606, 21.614062533075174, -32.54456187971074, 66.52468115680468, 62.61056740823277 
172.914492006705, 1.998638681014896, 21.614100938586517, -32.23169112314865, 66.96846745851244, 62.60690581438604 
172.0062371426742, 1.7843530119526332, 21.614134571316768, -31.889278099175716, 67.40961612138052, 62.603320022205814 
171.09682781979552, 1.5754122706377864, 21.614163702369126, -31.515807925420535, 67.84786305256985, 62.59981198962728 
170.186269569307, 1.3718757926400773, 21.614188600650202, -31.10968156361606, 68.28292699827837, 62.59638364043466 
169.27457003012353, 1.1738017187208376, 21.614209532445088, -30.66921346407722, 68.71450818286176, 62.59303686259677 
168.36173892754104, 0.9812469570887884, 21.614226760997898, -30.192629836960332, 69.1422868599535, 62.589773506625995 
167.44778804934492, 0.7942671454746381, 21.614240546098316, -29.678067760736177, 69.56592177738379, 62.58659538396219 
166.53273121926424, 0.6129166131080576, 21.614251143674878, -29.123575382898814, 69.9850485604241, 62.58350426538473 
165.61658426771896, 0.43724834268275425, 21.614258805395256, -28.527113519139277, 70.39927802144312, 62.58050187945287 
164.6993649998161, 0.2673139323969987, 21.61426377827429, -27.886559015114766, 70.80819440862167, 62.57758991097812 
163.78109316055728, 0.10316355815856738, 21.61426630429017, -27.1997102991496, 71.21135361213534, 62.57476999952875 
162.86179039722904, -0.05515406395562647, 21.61426662000934, -26.464295623638044, 71.60828135338232, 62.57204373796973 
161.94148021895577, -0.20759171489409994, 21.614264956220502, -25.677984565505383, 71.99847139161919, 62.56941267103881 
161.02018795340337, -0.3541037093874823, 21.614261537578393, -24.838403428376683, 72.38138379296758, 62.56687829396126 
160.0979407006328, -0.4946459321750254, 21.614256582257596, -23.943155255830174, 72.75644331931916, 62.56444205110437 
159.17476728411023, -0.6291758736083393, 21.614250301617, -22.989845218670315, 73.1230380092683, 62.56210533467392 
158.25069819889183, -0.7576526645401869, 21.61424289987528, -21.976112169085784, 73.48051803977148, 62.55986948345367 
157.32576555701067, -0.8800371104065071, 21.614234573797845, -20.899667147096427, 73.82819497549323, 62.55773578159029 
156.4000030301039, -0.9962917244107969, 21.614225512395645, -19.758339562523705, 74.16534153217424, 62.55570545742408 
155.47344578932766, -1.1063807597212831, 21.61421589663625, -18.550131638126228, 74.49119199986902, 62.553779682368294 
154.54613044261933, -1.210270240592744, 21.6142058991676, -17.27328146325077, 74.80494349005566, 62.55195956983735 
153.61809496937494, -1.3079279923269453, 21.614195684054817, -15.926334648372519, 75.10575818531812, 62.550246174226 
152.68937865262157, -1.3993236699878022, 21.61418540653026, -14.508224067763013, 75.39276677876187, 62.54864048994035 
151.7600220087738, -1.4844287857900929, 21.614175212757445, -13.018356516153602, 75.66507328911482, 62.54714345048241 
150.83006671507331, -1.563216735083542, 21.614165239608823, -11.456704285598693, 75.92176142262895, 62.545755927588885 
149.89955553482045, -1.635662820857343, 21.61415561445802, -9.823898712727257, 76.16190262028181, 62.544478730425524 
148.9685322405161, -1.7017442766939888, 21.614146454986525, -8.121321706470384, 76.38456587457478, 62.54331260483828 
148.03704153504074, -1.761440288105063, 21.614137869005265, -6.351190231481401, 76.58882932177508, 62.542258232661744 
147.10512897100642, -1.814732012186108, 21.61412995429133, -4.516627821515965, 76.7737935122266, 62.54131623108632 
146.172840868425, -1.861602595532195, 21.61412279843984, -2.6217165926206145, 76.93859613606342, 62.54048715208455 
145.2402242308437, -1.9020371903605524, 21.61411647873145, -0.6715230983041178, 77.08242784115527, 62.53977148189747 
144.30732666010607, -1.9360229687919452, 21.61411106201546, 1.3279081128299624, 77.204548635878, 62.539169640581804 
143.37419626990203, -1.9635491352475902, 21.614106604608683, 3.369598092876956, 77.30430423708601, 62.538681981618325 
142.44088159827612, -1.9846069369240578, 21.61410315221038, 5.445717024055187, 77.38114162203865, 62.53830879158215 
141.50743151926883, -1.9991896723142804, 21.614100739833194, 7.547707695709707, 77.43462299076971, 62.538050289875194 
140.57389515386865, -2.007292697748719, 21.614099391750276, 9.666445730696854, 77.4644373579735, 62.53790662852136 
139.64032178045616, -2.008913431936546, 21.614099121458576, 11.79243007584676, 77.47040907941359, 62.53787789202436 
138.70676074492363, -2.0040513584931383, 21.61409993165851, 13.915994353368124, 77.45250277571793, 62.53796409728891 
137.77326137065555, -1.9927080264458992, 21.614101814249864, 16.02752755731579, 77.41082433364151, 62.53816519360487 
136.83987286855555, -1.9748870487170582, 21.614104750344012, 18.117691607366172, 77.34561791888076, 62.5384810626946 
135.90664424730517, -1.9505940985879677, 21.61410871029247, 20.17762360069882, 77.2572591962365, 62.538911518823475 
134.97362422403907, -1.919836904155785, 21.614113653731675, 22.199112177476337, 77.14624519186549, 62.53945630897355 
134.04086113561922, -1.8826252407995503, 21.61411952964393, 24.174739981024928, 77.01318142215153, 62.540115113079466 
133.1084028506877, -1.8389709216785668, 21.614126276434536, 26.097987353435435, 76.85876703649298, 62.540887544327376 
132.17629668267443, -1.788887786292178, 21.614133822024915, 27.963295709523173, 76.68377877006725, 62.541773149515656 
131.24458930393172, -1.7323916871355571, 21.614142083961557, 29.76609206058644, 76.48905448121106, 62.54277140947705 
130.31332666116236, -1.66950047449198, 21.614150969540837, 31.50277860198737, 76.27547696888237, 62.543881739562124 
129.38255389230233, -1.6002339794073406, 21.61416037594927, 33.17069296225001, 76.0439586463412, 62.54510349018297 
128.4523152450124, -1.524613994897943, 21.614170190419273, 34.768045602230835, 75.79542750676738, 62.546435947416505 
127.52265399692618, -1.442664255447569, 21.614180290400082, 36.293841029193345, 75.5308146724407, 62.54787833366686 
126.59361237779424, -1.3544104148545248, 21.61419054374355, 37.7477891019212, 75.25104368506747, 62.54942980838559 
125.66523149365544, -1.2598800224938116, 21.614200808904844, 39.13021192836871, 74.95702158000218, 62.55108946884916 
124.73755125315824, -1.1591024980636735, 21.61421093515734, 40.441950870987895, 74.64963169616567, 62.552856350992435 
123.81061029614592, -1.0521091048896403, 21.614220762821944, 41.68427712374033, 74.32972810735943, 62.55472943029719 
122.88444592460904, -0.9389329218625799, 21.61423012351004, 42.85880831801699, 73.99813151769222, 62.55670762273442 
121.95909403609981, -0.8196088140906294, 21.614238840380143, 43.96743272239956, 73.65562644062159, 62.558789785759515 
121.03458905969286, -0.6941734023474146, 21.614246728407657, 45.012241859509665, 73.30295947360771, 62.5609747193586 
120.11096389456563, -0.5626650314016339, 21.61425359466752, 45.99547178199775, 72.94083848446873, 62.563261167145015 
119.18824985126291, -0.4251237373152061, 21.61425923862929, 46.91945282102415, 72.56993253749675, 62.565647817504576 
118.26647659569838, -0.28159121379875957, 21.614263452464332, 47.78656732588643, 72.19087240412382, 62.568133304787644 
117.34567209593646, -0.13211077771480786, 21.614266021364628, 48.59921472951633, 71.80425152198322, 62.570716210547445 
116.4258625717869, 0.023272666180041337, 21.614266723872916, 49.35978317746783, 71.4106272858077, 62.573395064822115 
115.50707244723509, 0.184512661161742, 21.614265332223553, 50.070626925589515, 71.01052257251817, 62.576168347459394 
114.58932430572028, 0.35156123504197756, 21.61426161269382, 50.734048724748874, 70.60442742032372, 62.579034489482325 
113.67263884826475, 0.5243689371553311, 21.614255325965082, 51.35228645422617, 70.19280079725864, 62.581991874493994 
112.75703485444737, 0.702884875738195, 21.614246227493368, 51.92750332665369, 69.77607240816383, 62.585038840119765 
111.84252914620566, 0.8870567556078051, 21.614234067888926, 52.46178105768059, 69.35464450068761, 62.58817367948521 
110.92913655444168, 1.0768309160507659, 21.61421859330416, 52.95711546651562, 68.92889364055046, 62.5913946427281 
110.01686988839893, 1.272152368831246, 21.614199545829543, 53.41541404484556, 68.49917243427022, 62.594699938542 
109.10573990776909, 1.4729648362307646, 21.614176663896902, 53.83849509863648, 68.06581118398194, 62.59808773575048 
108.19575529748036, 1.6792107890330001, 21.61414968268957, 54.22808812846313, 67.629119464123, 62.60155616490939 
107.28692264511146, 1.8908314843689429, 21.614118334558906, 54.58583516858177, 67.18938761379145, 62.60510331993548 
106.37924642086952, 2.1077670033397746, 21.614082349446562, 54.913292852828704, 66.74688814170811, 62.60872725975962 
105.47272896006358, 2.3299562883372453, 21.614041455311988, 55.211935016831454, 66.30187704308536, 62.61242601000231 
104.56737044800018, 2.55733717998362, 21.61399537856464, 55.48315568141307, 65.85459502947296, 62.61619756466973 
103.66316890722214, 2.789846453616051, 21.613943844500227, 55.72827229202797, 65.40526867392909, 62.62003988786851 
102.76012018700797, 3.0274198552428353, 21.613886577740548, 55.9485291142021, 64.95411147476143, 62.62395091553673 
101.85821795504471, 3.269992136901884, 21.613823302676256, 56.145100705877184, 64.50132484167578, 62.62792855718978 
100.95745369118387, 3.517497091354911, 21.613753743911946, 56.31909540485554, 64.04709900853176, 62.631970697678675 
100.05781668318804, 3.7698675860534743, 21.613677626713145, 56.471558783746545, 63.59161387708891, 62.63607519895881 
99.159294024372, 4.027035596316586, 21.613594677454373, 56.603477036401905, 63.135039796177075, 62.640239901867524 
98.26187061304245, 4.288932237662342, 21.613504624067875, 56.7157802692184, 62.677538280678675, 62.64446262790804 
97.365529153637, 4.555487797239601, 21.61340719649243, 56.80934567824744, 62.21926267459228, 62.64874118103818 
96.47025015946456, 4.826631764308455, 21.61330212712149, 56.88500059909409, 61.76035876228216, 62.65307334946176 
95.57601195694704, 5.102292859722069, 21.61318915125024, 56.94352542138062, 61.300965331819725, 62.65745690742045 
94.68279069126451, 5.38239906436498, 21.613068007520933, 56.98565636331702, 60.84121469410644, 62.66188961698463 
93.79056033330428, 5.66687764650672, 21.612938438365834, 57.0120881048496, 60.38123316124056, 62.66636922984102 
92.89929268781823, 5.955655188032288, 21.612800190447338, 57.02347628010807, 59.92114148736142, 62.670893489075304 
92.00895740269178, 6.248657609514388, 21.612653015094576, 57.02043983157053, 59.46105527497786, 62.67546013094761 
91.11952197923145, 6.545810194095323, 21.61249666873597, 57.00356322962188, 59.00108534956761, 62.68006688665946 
90.23095178337961, 6.8470376101492185, 21.612330913327195, 56.973398562084846, 58.54133810502354, 62.68471148411001 
89.34321005776746, 7.152263932698429, 21.61215551677392, 56.930467498922596, 58.08191582232087, 62.68939164963984 
88.45625793452152, 7.461412663560582, 21.611970253348858, 56.87526313771298, 57.622916963591805, 62.69410510976058 
87.57005444873992, 7.774406750205602, 21.611774904102536, 56.808251735717924, 57.16443644361536, 62.6988495928687 
86.68455655256153, 8.091168603304547, 21.611569257267202, 56.729874334463325, 56.706565880566075, 62.703622830941526 
85.79971912975145, 8.411620112954882, 21.61135310865343, 56.640548282730684, 56.249393827711195, 62.70842256121423 
84.91549501073382, 8.735682663568976, 21.611126262038795, 56.54066866377133, 55.79300598760488, 62.71324652783551 
84.03183498800449, 9.063277147415329, 21.61088852954824, 56.43060963240523, 55.33748541019636, 62.71809248350121 
83.14868783186292, 9.39432397680402, 21.61063973202546, 56.31072566747606, 54.88291267614948, 62.722958191063434 
82.26600030640626, 9.728743094910177, 21.610379699394986, 56.18135274491557, 54.42936606655993, 62.72784142511455 
81.38371718573408, 10.066453985231487, 21.610108271014347, 56.04280943643246, 53.97692172015526, 62.7327399735437 
80.50178127031768, 10.40737567967741, 21.60982529601596, 55.8953979385936, 53.52565377897028, 62.737651639065156 
79.62013340349277, 10.751426765290175, 21.60953063363818, 55.73940503681201, 53.07563452340475, 62.74257424071657 
78.73871248804102, 11.09852538959888, 21.609224153545185, 55.57510300850399, 52.6269344974938, 62.747505615326354 
77.85745550283038, 11.448589264610439, 21.60890573613512, 55.40275046942889, 52.17962262514915, 62.75244361894812 
76.9762975194917, 11.801535669442, 21.60857527283629, 55.22259316698231, 51.73376631806595, 62.75738612826186 
76.09517171911367, 12.157281451601945, 21.608232666390812, 55.03486472397901, 51.289431575929484, 62.76233104193977 
75.2140094089459, 12.515743026927318, 21.607877831125364, 54.83978733623712, 50.84668307950333, 62.76727628197625 
74.33274003910569, 12.876836378187445, 21.60751069320886, 54.63757242706006, 50.40558427713048, 62.77221979498072 
73.45129121929034, 13.24047705236505, 21.60713119089642, 54.42842126150868, 49.96619746513414, 62.77715955343184 
72.56958873550508, 13.606580156627063, 21.6067392747595, 54.212525523163556, 49.52858386256445, 62.78209355689293 
71.68755656682171, 13.9750603529993, 21.606334907901754, 53.99006785589444, 49.09280368069934, 62.78701983318707 
70.80511690219237, 14.34583185175987, 21.605918066160385, 53.76122237298341, 48.65891618767397, 62.791936439530666 
69.922190157348, 14.718808403568278, 21.605488738292696, 53.52615513578697, 48.226979768581955, 62.7968414636258 
69.03869499182086, 15.093903290347614, 21.605046926147498, 53.28502460397226, 47.7970519813632, 62.8017330247091 
