# MEX_intpoint_lon [deg], MEX_intpoint_lat [deg], MEX_intpoint_angle [deg], TGO_intpoint_lon [deg], TGO_intpoint_lat [deg], TGO_intpoint_angle [deg] 
-139.2734901797849, 19.581266521303764, 21.74374875625512, -27.466376992566097, 41.273066094602925, 62.8937962099208 
-140.16516512054181, 19.1804453920675, 21.744346621801807, -27.740923012951775, 41.682353827814794, 62.889126315846354 
-141.05521492923302, 18.78075042888203, 21.744932467144118, -28.01037574151312, 42.094187186976484, 62.88442070120949 
-141.9437430219111, 18.38227550843192, 21.745506128319057, -28.274631876712704, 42.508510343187716, 62.87968084475295 
-142.8308511864779, 17.985113847474395, 21.74606745592697, -28.53358401689863, 42.9252669479971, 62.874908269378935 
-143.71663956178713, 17.589358026462833, 21.746616315146515, -28.787120431293516, 43.34440010394767, 62.87010454162084 
-144.60120661780573, 17.195100012146906, 21.747152585732078, -29.035124818980524, 43.765852332809565, 62.86527127106199 
-145.48464913668724, 16.802431179114944, 21.74767616199377, -29.27747605514497, 44.189565541366825, 62.860410109702244 
-146.36706219462326, 16.411442330245226, 21.748186952759784, -29.514047923782535, 44.61548098461596, 62.85552275127224 
-147.2485391443481, 16.022223716036077, 21.74868488132148, -29.744708836033375, 45.04353922622136, 62.85061093049598 
-148.1291715981841, 15.634865052784995, 21.749169885361212, -29.96932153324891, 45.47368009606129, 62.845676422301736 
-149.0090494115228, 15.249455539590008, 21.749641916862956, -30.18774277384026, 45.90584264468388, 62.840721040982096 
-149.88826066664896, 14.866083874147083, 21.750100942006032, -30.399823002898515, 46.33996509447874, 62.83574663930354 
-150.7668916568227, 14.484838267319295, 21.75054694104198, -30.605406003514226, 46.775984787353515, 62.830755107565764 
-151.6450268705444, 14.105806456454891, 21.750979908154804, -30.804328528657468, 47.213838128687755, 62.82574837261187 
-152.5227489759358, 13.729075717432336, 21.75139985130489, -30.996419912411827, 47.653460527318465, 62.82072839678973 
-153.40013880518046, 13.35473287541226, 21.751806792056676, -31.181501659284127, 48.09478633129062, 62.81569717686532 
-154.27727533897283, 12.982864314276874, 21.752200765390413, -31.35938701023733, 48.53774875908553, 62.81065674288877 
-155.15423569093628, 12.61355598473923, 21.752581819498328, -31.529880484018282, 48.982279826015166, 62.80560915701412 
-156.03109509197554, 12.246893411105344, 21.75295001556538, -31.692777392273076, 49.4283102654463, 62.80055651227337 
-156.9079268745394, 11.882961696673979, 21.753305427535004, -31.847863326863436, 49.875769444489805, 62.79550093130606 
-157.78480245677483, 11.521845527759588, 21.753648141860065, -31.99491361771662, 50.324585273761485, 62.79044456504509 
-158.66179132656245, 11.163629176325642, 21.753978257239513, -32.13369275946122, 50.77468411078811, 62.78538959136001 
-159.53896102543038, 10.808396501216492, 21.754295884340948, -32.263953805021934, 51.225990656598015, 62.780338213658915 
-160.41637713234962, 10.456230947977483, 21.75460114550956, -32.385437724269856, 51.6784278449978, 62.77529265944991 
-161.29410324742182, 10.10721554725436, 21.754894174463868, -32.497872725753005, 52.131916723996405, 62.77025517886338 
-162.17220097547727, 9.761432911764318, 21.7551751159785, -32.60097353946646, 52.58637632879452, 62.765228043136645 
-163.0507299096059, 9.418965231832924, 21.755444125554714, -32.6944406585657, 53.04172354570985, 62.76021354306169 
-163.92974761465263, 9.079894269492208, 21.7557013690788, -32.77795953788354, 53.49787296635934, 62.75521398739808 
-164.80930961071243, 8.744301351137509, 21.75594702246907, -32.851199747085225, 53.95473673136473, 62.7502317012518 
-165.68946935666855, 8.412267358741822, 21.756181271311725, -32.913814076291644, 54.41222436279077, 62.745269024422015 
-166.570278233821, 8.083872719628836, 21.756404310486186, -32.96543759202465, 54.870242584463426, 62.740328309716666 
-167.4517855296605, 7.7591973948072255, 21.756616343780387, -33.005686641386944, 55.328695129250576, 62.73541192123928 
-168.33403842184617, 7.438320865871403, 21.756817583496435, -33.03415780249243, 55.787482532317725, 62.73052223264775 
-169.21708196245234, 7.121322120475692, 21.75700825004727, -33.05042677931988, 56.24650190929852, 62.72566162538741 
-170.10095906255364, 6.808279636391229, 21.757188571544834, -33.054047239387714, 56.70564671824305, 62.72083248689951 
-170.98571047722396, 6.499271364157458, 21.7573587833802, -33.044549592954795, 57.16480650412668, 62.716037208807485 
-171.87137479102665, 6.1943747083424245, 21.757519127796368, -33.02143971285895, 57.623866624619296, 62.71127818508221 
-172.75798840408106, 5.893666507428756, 21.757669853454153, -32.98419759463436, 58.082707955730136, 62.706557810188464 
-173.64558551879216, 5.597223012344628, 21.757811214991754, -32.93227595722441, 58.54120657585726, 62.70187847721415 
-174.53419812733418, 5.305119863662482, 21.75794347257872, -32.86509878545939, 58.999233426684846, 62.69724257598445 
-175.42385599998352, 5.0174320674902955, 21.758066891464683, -32.78205981653323, 59.45665394928881, 62.69265249116282 
-176.31458667439833, 4.73423397008397, 21.75818174152358, -32.68252097403126, 59.913327693731205, 62.68811060034041 
-177.206415445945, 4.455599231212013, 21.75828829679398, -32.56581075468044, 60.369107900353306, 62.683619272116644 
-178.0993653591749, 4.1816007963070385, 21.75838683501606, -32.43122257497054, 60.82384105091727, 62.67918086417201 
-178.9934572005556, 3.9123108674417804, 21.758477637165797, -32.278013087194246, 61.27736638770179, 62.67479772133614 
-179.88870949256318, 3.647800873170714, 21.75856098698709, -32.10540047735096, 61.729515398637055, 62.670472173652435 
179.21486151075746, 3.388141437281652, 21.758637170522388, -31.912562760837773, 62.1801112665719, 62.66620653444194 
178.31724182665565, 3.133402346504922, 21.758706475642377, -31.69863609601016, 62.62896828081471, 62.66200309836802 
177.41841974485422, 2.8836525172316185, 21.758769191575407, -31.46271314064061, 63.075891209187645, 62.65786413950469 
176.51838582693617, 2.638959961295199, 21.758825608437256, -31.203841482158055, 63.520674628997384, 62.65379190940974 
175.6171329038335, 2.399391750874751, 21.758876016761878, -30.921022179445348, 63.963102215569606, 62.64978863520609 
174.71465607131114, 2.1650139825812045, 21.758920707033642, -30.613208462045996, 64.40294598734047, 62.6458565176725 
173.8109526833444, 1.9358917407914442, 21.75895996922185, -30.279304642034365, 64.83996550696962, 62.641997729346166 
172.90602234328787, 1.7120890602983923, 21.758994092317955, -29.918165304680038, 65.2739070385641, 62.638214412639584 
171.99986689273922, 1.4936688883485356, 21.75902336387627, -29.52859485653115, 65.70450266191412, 62.63450867797361 
171.09249039800355, 1.2806930461415162, 21.759048069558553, -29.10934752377191, 66.13146934567794, 62.63088260192895 
170.1838991340693, 1.0732221898693284, 21.759068492683333, -28.65912790976529, 66.55450798275862, 62.627338225418484 
169.27410156601053, 0.8713157713757502, 21.759084913780313, -28.176592238600453, 66.97330239273717, 62.623877551882096 
168.36310832773785, 0.6750319985194493, 21.759097610150594, -27.660350431168936, 67.38751829822073, 62.62050254550655 
167.45093219802376, 0.48442779532653035, 21.75910685543327, -27.10896918160779, 67.79680228438745, 62.617215129472726 
166.53758807373723, 0.2995587620211341, 21.759112919178904, -26.520976224514147, 68.20078075392165, 62.61401718423166 
165.62309294022825, 0.12047913502447315, 21.75911606643049, -25.894866006556068, 68.5990588929933, 62.61091054581216 
164.70746583881112, -0.05275825298499146, 21.759116557312527, -25.229106999076325, 68.99121966799851, 62.60789700416169 
163.79072783130405, -0.2201020128560033, 21.759114646628543, -24.522150909709527, 69.37682287748395, 62.60497830152277 
162.87290196159074, -0.38150223849776427, 21.759110583467816, -23.77244406912657, 69.75540428905153, 62.60215613084652 
161.95401321417893, -0.5369105460652319, 21.759104610821716, -22.978441281419585, 70.12647489706892, 62.599432134246065 
161.03408846974145, -0.6862801126984865, 21.759096965210112, -22.138622430314943, 70.4895203436395, 62.59680790149089 
160.11315645763418, -0.8295657147179349, 21.75908787631851, -21.25151212459207, 70.84400055239428, 62.59428496854454 
159.1912477053964, -0.9667237651768689, 21.759077566646155, -20.31570264028862, 71.18934963204762, 62.59186481614741 
158.26839448524942, -1.0977123506728113, 21.75906625116583, -19.329880369313468, 71.52497611399762, 62.58954886844643 
157.3446307576205, -1.222491267320006, 21.759054136995605, -18.292855908306446, 71.85026359510138, 62.58733849167331 
156.41999211173, -1.3410220557857389, 21.759041423083026, -17.2035978121965, 72.16457186251594, 62.58523499287306 
155.49451570329055, -1.4532680352949583, 21.759028299902244, -16.061269888591518, 72.4672385814034, 62.583239618684715 
154.568240189379, -1.5591943365088556, 21.759014949164285, -14.865271717859198, 72.75758162741707, 62.581353554175124 
153.6412056605528, -1.6587679331853846, 21.759001543541142, -13.615281847919492, 73.03490214314145, 62.57957792172824 
152.71345357029315, -1.7519576725318842, 21.758988246403725, -12.311302834545293, 73.2984883898753, 62.57791377999053 
151.78502666186895, -1.8387343041628605, 21.75897521157425, -10.953706984846622, 73.54762045215188, 62.576362122874464 
150.85596889272617, -1.9190705075790906, 21.758962583093368, -9.543281327871087, 73.78157583113816, 62.57492387862102 
149.92632535651754, -1.9929409180878084, 21.758950495002185, -8.081270004087068, 73.99963593381338, 62.57359990892269 
148.99614220289803, -2.0603221510874277, 21.758939071139626, -6.56941196542203, 74.20109342739765, 62.5723910081079 
148.06546655522072, -2.121192824644805, 21.758928424955418, -5.009971647445248, 74.38526038344997, 62.57129790238808 
147.13434642627794, -2.175533580297278, 21.758918659338754, -3.4057601580690755, 74.55147708492925, 62.57032124916857 
146.20283063224, -2.2233271020168828, 21.758909866463142, -1.7601445660932145, 74.69912131498715, 62.569461636423604 
145.27096870495285, -2.264558133279115, 21.758902127647303, -0.07704310543051983, 74.82761789216055, 62.568719582136985 
144.3388108027637, -2.2992134921842684, 21.758895513232726, 1.6390954392179968, 74.93644816775083, 62.56809553380893 
143.40640762004907, -2.3272820845848994, 21.758890082477603, 3.383329229578909, 75.0251591629158, 62.56758986802928 
142.4738102956269, -2.348754915179081, 21.758885883467627, 5.150277953371995, 75.09337200074374, 62.56720289011845 
141.5410703202396, -2.3636250965350776, 21.758882953043543, 6.934193681087758, 75.14078928695156, 62.56693483383591 
140.608239443298, -2.3718878560195984, 21.758881316745757, 8.72904613381159, 75.16720111488543, 62.56678586115705 
139.67536957908106, -2.3735405406079275, 21.758880988775843, 10.528619481670871, 75.1724894169591, 62.566756062118316 
138.74251271258754, -2.368582619561164, 21.758881971975175, 12.326616934746067, 75.15663045356493, 62.56684545473133 
137.80972080523884, -2.357015684962035, 21.75888425782068, 14.116768786838694, 75.11969531711905, 62.56705398496561 
136.87704570063127, -2.338843450107778, 21.758887826437626, 15.892939300592193, 75.06184842621727, 62.56738152680013 
135.94453903053696, -2.3140717457649855, 21.758892646629583, 17.649227914063268, 74.98334408441141, 62.56782788234392 
135.01225212135157, -2.282708514298117, 21.758898675925323, 19.380060692447625, 74.88452127107936, 62.568392782024766 
134.08023590118322, -2.244763801689954, 21.758905860642788, 21.080268689431495, 74.76579691037603, 62.56907588484696 
133.14854080777684, -2.2002497474787424, 21.758914135969956, 22.745150832136908, 74.62765792235363, 62.56987677871629 
132.21721669746105, -2.1491805726431488, 21.758923426062427, 24.370519994945436, 74.47065239465698, 62.57079498083327 
131.28631275530293, -2.0915725654724358, 21.758933644157725, 25.95273197221039, 74.29538022315255, 62.571829938153016 
130.3558774066478, -2.0274440654652683, 21.75894469270611, 27.488698003387046, 74.10248355741086, 62.572981027911766 
129.42595823021705, -1.9568154453063413, 21.758956463517727, 28.975882276500624, 73.89263735605833, 62.57424755821897 
128.49660187292844, -1.8797090909757554, 21.758968837925835, 30.412286397069273, 73.666540312753, 62.57562876871455 
127.56785396659582, -1.7961493800511856, 21.75898168696604, 31.796423148998375, 73.42490636139934, 62.577123831289995 
126.63975904665756, -1.7061626582681884, 21.758994871571193, 33.12728200567835, 73.16845691435853, 62.57873185087275 
125.71236047307274, -1.6097772144083997, 21.75900824278169, 34.40428880517502, 72.89791393417892, 62.580451866272654 
124.78570035351564, -1.5070232535901253, 21.75902164197089, 35.627261824238495, 72.61399389101989, 62.582282851089325 
123.85981946898866, -1.3979328690396315, 21.759034901085514, 36.7963662156378, 72.31740261657501, 62.58422371467935 
122.93475720196363, -1.2825400124252175, 21.759047842900397, 37.912068452882735, 72.00883103194698, 62.58627330318197 
122.01055146715036, -1.1608804628396485, 21.759060281287603, 38.97509209014395, 71.68895170174409, 62.588430400601844 
121.08723864498111, -1.032991794519185, 21.759072021499232, 39.98637581949018, 71.35841614915925, 62.59069372994793 
120.1648535178881, -0.8989133433903532, 21.759082860463803, 40.94703451056146, 71.01785285604663, 62.593061954426034 
119.24342920943971, -0.7586861725375741, 21.759092587095626, 41.858323660197726, 70.66786586689551, 62.595533678684795 
118.32299712639062, -0.6123530366867098, 21.75910098261689, 42.72160746598483, 70.30903391493155, 62.598107450112224 
117.40358690368892, -0.4599583458009555, 21.75910782089196, 43.538330568265366, 69.94190999121382, 62.600781760182095 
116.4852263524731, -0.30154812788660545, 21.75911286877346, 44.30999337691626, 69.56702128253758, 62.6035550458479 
115.56794141107981, -0.13716999110686448, 21.759115886459732, 45.03813080732095, 69.18486941034254, 62.60642569098279 
114.65175609907328, 0.03312691469775641, 21.759116627863126, 45.72429418881921, 68.79593090998507, 62.6093920278638 
113.73669247429642, 0.2092919369840508, 21.759114840988648, 46.37003607272281, 68.4006578971397, 62.61245233869828 
112.82277059293351, 0.3912729598775461, 21.75911026832254, 46.97689765028951, 67.99947887537097, 62.615604857190576 
111.91000847256444, 0.5790164438433899, 21.759102647230222, 47.546398488996914, 67.5927996458053, 62.618847770147305 
110.99842205818075, 0.7724674655604521, 21.759091710363013, 48.08002830391824, 67.18100428617149, 62.622179219119026 
110.08802519112578, 0.9715697579032989, 21.759077186073235, 48.579240496583026, 66.76445617218401, 62.62559730207622 
109.17882958091077, 1.1762657499388938, 21.759058798837028, 49.04544721372222, 66.34349901928174, 62.629100075117755 
108.27084477985301, 1.3864966068462043, 21.75903626968439, 49.480015700684696, 65.91845792711477, 62.63268555420937 
107.36407816047236, 1.6022022696692653, 21.759009316635872, 49.884265747544156, 65.48964041292803, 62.63635171695061 
106.45853489557756, 1.8233214948165026, 21.758977655145294, 50.25946804890037, 65.0573374231685, 62.6400965043676 
105.55421794096539, 2.0497918932216916, 21.758940998547978, 50.60684332037748, 64.62182431530371, 62.64391782272969 
104.65112802065188, 2.281549969084392, 21.75889905851386, 50.92756203536377, 64.18336180403962, 62.64781354538797 
103.74926361454767, 2.518531158110974, 21.758851545504918, 51.22274466435822, 63.742196867926985, 62.651781514633136 
102.8486209484864, 2.7606698651799197, 21.75879816923628, 51.49346231627218, 63.29856361380335, 62.65581954357088 
101.94919398651031, 3.0078995013584118, 21.75873863914044, 51.74073769616985, 62.85268409768169, 62.65992541801247 
101.05097442531368, 3.2601525202005606, 21.75867266483397, 51.96554630728009, 62.40476910161614, 62.66409689837816 
100.15395169074225, 3.5173604532604865, 21.758599956586053, 52.16881783678062, 61.955018866789594, 62.668331721611665 
99.25811293624416, 3.7794539447574045, 21.758520225788367, 52.3514376749769, 61.503623783610806, 62.67262760310314 
98.36344304316648, 4.046362785332713, 21.758433185425528, 52.51424852621836, 61.050765040015605, 62.67698223861858 
97.46992462278975, 4.318015944842928, 21.75833855054562, 52.65805207736049, 60.596615229457655, 62.68139330623379 
96.57753801999296, 4.594341604135416, 21.758236038730097, 52.783610695938535, 60.14133892027696, 62.68585846827019 
95.68626131844057, 4.875267185757624, 21.75812537056252, 52.891649135603366, 59.68509318826249, 62.69037537323099 
94.79607034718425, 5.160719383553525, 21.758006270095464, 52.98285623090788, 59.228028114297146, 62.69494165773501 
93.90693868857198, 5.4506241911048505, 21.757878465314974, 53.0578865673382, 58.770287249000354, 62.69955494844649 
93.0188376873595, 5.744906928977448, 21.75774168860203, 53.11736211566086, 58.31200804627638, 62.704212863998706 
92.13173646091994, 6.043492270736884, 21.757595677190356, 53.16187382229463, 57.85332226764259, 62.7089130169092 
91.24560191044999, 6.346304267700363, 21.757440173619987, 53.19198314959585, 57.39435635915991, 62.713653015484766 
90.36039873307368, 6.6532663723950165, 21.757274926185968, 53.20822356173643, 56.93523180272137, 62.71843046571428 
89.47608943474724, 6.964301460696102, 21.75709968938175, 53.211101953315776, 56.476065443378744, 62.72324297314709 
88.59263434387243, 7.279331852621059, 21.756914224336438, 53.20110001903405, 56.0169697943063, 62.728088144755546 
87.70999162552864, 7.598279331758746, 21.75671829924557, 53.17867556370784, 55.558053320915135, 62.73296359077916 
86.8281172962386, 7.921065163315389, 21.756511689794714, 53.144263752669396, 55.09942070554642, 62.737866926549266 
85.94696523918583, 8.2476101107621, 21.75629417957538, 53.09827830318981, 54.64117309408559, 62.74279577429185 
85.06648721980795, 8.577834451070533, 21.756065560492683, 53.04111261803157, 54.183408325755835, 62.74774776490685 
84.1866329016926, 8.911657988526573, 21.755825633164246, 52.97314086259052, 53.72622114726773, 62.75272053972267 
83.30734986270944, 9.249000067113508, 21.755574207309778, 52.894718987351034, 53.26970341242313, 62.75771175222329 
82.42858361131616, 9.589779581458824, 21.755311102130854, 52.80618569756791, 52.81394426819684, 62.76271906974753 
81.55027760298123, 9.933914986340806, 21.755036146680315, 52.70786337221648, 52.3590303282477, 62.767740175157975 
80.67237325667328, 10.281324304752859, 21.754749180220976, 52.60005893433302, 51.905045834744236, 62.77277276847823 
79.79480997137055, 10.6319251345259, 21.754450052572942, 52.483064674907205, 51.452072809325486, 62.77781456849744 
78.91752514255202, 10.98563465351031, 21.754138624449215, 52.35715903249739, 51.00019119395914, 62.78286331433998 
78.0404541786362, 11.342369623321375, 21.753814767779073, 52.222607330723875, 50.54947898240242, 62.78791676699951 
77.16353051734096, 11.70204639165314, 21.753478366018918, 52.07966247575965, 50.10001234291982, 62.792972710835635 
76.28668564194358, 12.064580893167685, 21.75312931444992, 51.928565615888864, 49.6518657328626, 62.79802895503223 
75.40984909742701, 12.429888648967886, 21.752767520462385, 51.769546765141726, 49.20511200567051, 62.80308333501583 
74.5329485065055, 12.79788476466343, 21.752392903826106, 51.60282539294602, 48.75982251081349, 62.80813371383328 
73.6559095855286, 13.16848392704118, 21.752005396946704, 51.42861098166074, 48.31606718715297, 62.81317798348728 
72.77865616027127, 13.54160039935206, 21.751604945107204, 51.24710355377954, 47.87391465016556, 62.81821406622874 
71.9011101816234, 13.917148015228289, 21.751191506694934, 51.05849417051146, 47.43343227343893, 62.823239915805146 
71.02319174120109, 14.295040171245622, 21.75076505341303, 50.862965403366054, 46.994686264818974, 62.8282535186638 
70.14481908690831, 14.675189818146936, 21.75032557047654, 50.66069178028958, 46.55774173755788, 62.83325289510897 
