# MEX_intpoint_lon [deg], MEX_intpoint_lat [deg], MEX_intpoint_angle [deg], TGO_intpoint_lon [deg], TGO_intpoint_lat [deg], TGO_intpoint_angle [deg] 
-138.9476912392256, 19.503503231745306, 21.521977646524014, -27.658562563700073, 43.93867469650566, 62.83684858307102 
-139.84662106917006, 19.114632366769257, 21.522549465124083, -27.975557649050955, 44.33775698027992, 62.83227808637634 
-140.74392824606014, 18.72682167418183, 21.52311008031021, -28.288140535603503, 44.7395005758612, 62.82767674384548 
-141.63971123200054, 18.340163872252464, 21.523659334813114, -28.596220243065144, 45.143857053230995, 62.82304599770067 
-142.53406701168646, 17.954751026380535, 21.524197084935988, -28.89970198515108, 45.55077763100188, 62.81838732844786 
-143.42709106704368, 17.57067456977779, 21.524723200569845, -29.19848694151951, 45.96021315670418, 62.81370225436772 
-144.31887735309834, 17.18802532326365, 21.52523756519241, -29.4924720163315, 46.37211408527733, 62.80899233096097 
-145.20951827493732, 16.806893514136117, 21.525740075850678, -29.781549582490477, 46.78643045565576, 62.80425915034796 
-146.09910466563198, 16.42736879408282, 21.526230643127167, -30.065607210541742, 47.203111865330335, 62.79950434062267 
-146.9877257650057, 16.04954025609907, 21.526709191090013, -30.344527381131467, 47.62210744275535, 62.794729565161475 
-147.87546919913706, 15.673496450381547, 21.527175657226955, -30.61818717983679, 48.04336581745998, 62.78993652188722 
-148.76242096049765, 15.299325399168243, 21.527629992363323, -30.8864579730834, 48.46683508771003, 62.78512694248884 
-149.6486653886338, 14.927114610496822, 21.528072160564207, -31.149205063764043, 48.8924627855522, 62.78030259159691 
-150.53428515131003, 14.556951090855245, 21.528502139021, -31.40628732505956, 49.32019583905818, 62.77546526591584 
-151.41936122603926, 14.18892135670025, 21.528919917922416, -31.65755681084229, 49.74998053156822, 62.770616793313 
-152.30397288193504, 13.82311144482037, 21.529325500310193, -31.90285834091114, 50.18176245771681, 62.76575903186586 
-153.18819766182716, 13.45960692152224, 21.52971890191978, -32.14202905916385, 50.61548647600168, 62.76089386886698 
-154.0721113645913, 13.09849289061956, 21.530100151006124, -32.374897962658466, 51.051096657635995, 62.75602321978861 
-154.95578802764973, 12.739854000206327, 21.53046928815494, -32.60128539934776, 51.48853623139889, 62.75114902720657 
-155.83929990960883, 12.383774448196545, 21.53082636607957, -32.82100253208926, 51.927747524172695, 62.746273259685026 
-156.72271747300528, 12.030337986614654, 21.531171449403914, -33.03385076633648, 52.368671896825525, 62.74139791062279 
-157.60610936714068, 11.679627924621744, 21.531504614431565, -33.23962113870477, 52.811249675065675, 62.736524997061466 
-158.48954241099057, 11.331727130264447, 21.531825948901535, -33.438093663374495, 53.255420074857774, 62.7316565584576 
-159.37308157618148, 10.986718030934446, 21.53213555173096, -33.62903663304584, 53.70112112195175, 62.72679465541845 
-160.25678997003516, 10.644682612528365, 21.53243353274503, -33.81220587089107, 54.148289565031384, 62.72194136840349 
-161.14072881868637, 10.30570241729899, 21.532720012394638, -33.987343929660774, 54.59686078194098, 62.71709879639203 
-162.02495745028648, 9.969858540390328, 21.532995121461937, -34.15417923378943, 55.04676867839634, 62.712269055518654 
-162.90953327831141, 9.637231625050967, 21.533259000754494, -34.312425160010996, 55.497945578525794, 62.707454277677016 
-163.79451178499826, 9.307901856521244, 21.533511800788137, -34.46177905163746, 55.950322106523764, 62.70265660909399 
-164.67994650494046, 8.981948954592118, 21.533753681459157, -34.60192116127038, 56.40382705862601, 62.69787820887446 
-165.5658890088778, 8.6594521648348, 21.533984811706127, -34.732513516308636, 56.85838726453744, 62.693121247519116 
-166.45238888772184, 8.340490248502695, 21.53420536916199, -34.85319870118334, 57.31392743735476, 62.68838790541581 
-167.3394937368634, 8.02514147110852, 21.534415539796647, -34.96359854979647, 57.77037001092969, 62.68368037130622 
-168.22724914081354, 7.713483589682059, 21.53461551755069, -35.06331274116252, 58.22763496351105, 62.67900084072912 
-169.115698658234, 7.405593838715866, 21.534805503960698, -35.15191729075682, 58.68563962638532, 62.67435151444191 
-170.00488380741828, 7.101548914808327, 21.534985707776624, -35.22896292956495, 59.144298476104716, 62.66973459682154 
-170.89484405228853, 6.801424960016042, 21.535156344571664, -35.29397336230914, 59.60352290874702, 62.665152294246916 
-171.78561678897725, 6.50529754392982, 21.535317636345376, -35.34644339581122, 60.06322099449183, 62.66060681346384 
-172.6772373330675, 6.213241644490861, 21.535469811120215, -35.38583692794793, 60.523297210622765, 62.65610035993435 
-173.5697389075688, 5.925331627566397, 21.535613102532366, -35.41158478717961, 60.98365215087101, 62.651635136172104 
-174.46315263170777, 5.641641225306867, 21.53574774941716, -35.423082412209524, 61.444182208803824, 62.64721334006542 
-175.35750751061846, 5.3622435133089414, 21.535873995389768, -35.41968736098472, 61.90477923272819, 62.642837163189775 
-176.25283042601677, 5.08721088661209, 21.535992088421608, -35.40071663801808, 62.365330149325374, 62.63850878911126 
-177.14914612794857, 4.8166150345587875, 21.536102280413175, -35.36544382893921, 62.825716552953836, 62.634230391683026 
-178.04647722770085, 4.55052691455155, 21.5362048267636, -35.31309603132933, 63.28581425725701, 62.63000413333635 
-178.94484419196917, 4.289016724742974, 21.53629998593789, -35.24285057133751, 63.74549280538576, 62.625832163368074 
-179.84426533837322, 4.032153875697975, 21.536388019031953, -35.15383149640449, 64.20461493479513, 62.621716616226394 
179.25524316758452, 3.7800069610703764, 21.53646918933638, -35.045105835758775, 64.66303599220214, 62.61765960979668 
178.3536673140221, 3.532643727339143, 21.536543761899303, -34.9156796223428, 65.12060329389608, 62.61366324368933 
177.45099524255042, 3.2901310426527193, 21.536612003089058, -34.764493672664045, 65.57715542618219, 62.60972959753134 
176.54721724641902, 3.052534864832789, 21.536674180157032, -34.590419124975085, 66.03252148031783, 62.60586072926347 
175.64232576684336, 2.8199202085921384, 21.536730560801594, -34.39225274145588, 66.48652021587631, 62.60205867344538 
174.7363153874217, 2.592351112024123, 21.536781412733273, -34.168711987049925, 66.93895914606439, 62.598325439569706 
173.82918282655214, 2.369890602424383, 21.536827003242085, -33.91842990672552, 67.38963353813799, 62.59466301038782 
172.92092692776268, 2.152600661508285, 21.53686759876741, -33.639949834713185, 67.83832532173987, 62.59107334024876 
172.01154864787034, 1.9405421900905995, 21.536903464471052, -33.33171998434472, 68.28480189775068, 62.58755835345326 
171.1010510428889, 1.7337749722965348, 21.53693486381399, -32.992087986237095, 68.72881484015224, 62.58411994262467 
170.18943925160852, 1.5323576393760423, 21.536962058137412, -32.61929546662095, 69.17009848350774, 62.58075996709929 
169.27672047677507, 1.3363476331958364, 21.53698530624857, -32.211472787645384, 69.60836838904595, 62.5774802513366 
168.36290396380343, 1.145801169485973, 21.537004864012005, -31.766634108694095, 70.0433196830985, 62.57428258335304 
167.44800097696165, 0.9607732009200447, 21.53702098394671, -31.28267297345804, 70.4746252629097, 62.571168713179645 
166.53202477297287, 0.7813173801102451, 21.53703391482966, -30.757358683184016, 70.90193386677693, 62.568140351346145 
165.6149905719843, 0.6074860226002434, 21.537043901306347, -30.188333783666064, 71.32486800829216, 62.5651991673933 
164.6969155258631, 0.43933006994064083, 21.5370511835088, -29.573113073631482, 71.74302177838352, 62.56234678841491 
163.7778186837847, 0.27689905293319866, 21.537055996681534, -28.90908463643228, 72.15595852419978, 62.5595847976315 
162.85772095508682, 0.12024105513107501, 21.537058570815955, -28.193513506133964, 72.56320842098836, 62.55691473299749 
161.93664506937196, -0.030597323316558137, 21.537059130293812, -27.423548703052635, 72.96426596238962, 62.554338085843305 
161.01461553384814, -0.17557100138666962, 21.537057893539945, -26.596234510943383, 73.35858740644923, 62.551856299554146 
160.0916585879086, -0.31463645238192434, 21.53705507268497, -25.70852701458469, 73.74558822960203, 62.54947076828722 
159.16780215495825, -0.44775173851833744, 21.537050873238293, -24.757317065431614, 74.12464065935323, 62.54718283572878 
158.24307579150621, -0.5748765448118511, 21.53704549377182, -23.73946098287515, 74.49507137874704, 62.544993793892615 
157.31751063355128, -0.6959722121752934, 21.537039125614946, -22.65182041211161, 74.85615952216749, 62.542904881961576 
156.3911393402992, -0.8110017696380528, 21.53703195256097, -21.491312821959983, 75.20713511245097, 62.54091728517336 
155.4639960352585, -0.9199299656019747, 21.537024150585616, -20.254974103687395, 75.54717812310065, 62.53903213375219 
154.53611624477315, -1.0227232980486147, 21.537015887577784, -18.94003458208376, 75.87541838524915, 62.53725050188753 
153.6075368340588, -1.1193500436147987, 21.537007323083035, -17.54400942090062, 76.19093659458555, 62.53557340676128 
152.6782959408203, -1.2097802854557698, 21.536998608060124, -16.064803838654242, 76.49276670512816, 62.53400180762467 
151.7484329065373, -1.2939859398176623, 21.536989884650822, -14.500832690503593, 76.77990001934259, 62.53253660492583 
150.81798820551427, -1.371940781244008, 21.53698128596348, -12.851152771842415, 77.05129129090788, 62.53117863948929 
149.88700337180032, -1.443620466344226, 21.536972935870445, -11.115604641912709, 77.30586713920607, 62.52992869174876 
148.9555209240938, -1.509002556055465, 21.536964948819772, -9.294958883388839, 77.54253702430158, 62.52878748103347 
148.02358428875397, -1.568066536333192, 21.536957429661328, -7.391059612595634, 77.76020693911741, 62.52775566490959 
147.09123772105147, -1.6207938372098611, 21.53695047348763, -5.406955935926902, 77.95779583531883, 62.5268338385775 
146.1585262247961, -1.6671678501656084, 21.53694416548959, -3.34701021645192, 78.13425460951824, 62.52602253432522 
145.22549547048715, -1.7071739437593463, 21.53693858082732, -1.216970866078777, 78.28858724286452, 62.525322221039396 
144.29219171213947, -1.7407994774738116, 21.536933784516208, 0.9760026495084702, 78.41987342595515, 62.52473330377394 
143.3586617029428, -1.76803381373303, 21.53692983132847, 3.223373420307973, 78.52729173939362, 62.524256123377 
142.42495260991777, -1.788868328056073, 21.536926765710152, 5.5153269106277145, 78.61014223484993, 62.52389095617717 
141.49111192773657, -1.8032964173165176, 21.536924621713894, 7.840939649842011, 78.6678671136434, 62.52363801372852 
140.55718739187978, -1.8113135060825827, 21.53692342294733, 10.188413237887973, 78.7000681681903, 62.52349744261554 
139.62322689130403, -1.8129170510186732, 21.53692318253741, 12.545363375238091, 78.70651976217073, 62.52346932431797 
138.68927838079736, -1.808106543335111, 21.53692390311052, 14.899147414419806, 78.6871763827535, 62.523553675135524 
137.75538979320018, -1.7968835092783895, 21.536925576788505, 17.23720931643626, 78.6421741813262, 62.52375044617281 
136.82160895167135, -1.779251508660653, 21.53692818520059, 19.547418744008176, 78.57182638180613, 62.52405952338457 
135.8879834821774, -1.7552161314327719, 21.536931699511182, 21.81838175283079, 78.47661291504437, 62.52448072768088 
134.95456072638262, -1.7247849923114082, 21.53693608046351, 24.039704009115905, 78.35716506776664, 62.52501381509231 
134.02138765511643, -1.6879677234765202, 21.53694127843906, 26.202193002455644, 78.21424625912307, 62.52565847699487 
133.08851078259028, -1.6447759653612197, 21.536947233532683, 28.29799233366793, 78.0487302429016, 62.52641434039465 
132.15597608153467, -1.5952233555620021, 21.53695387564334, 30.320647750828275, 77.86157807077849, 62.52728096827103 
131.22382889942182, -1.5393255159026593, 21.536961124580333, 32.265110258136964, 77.6538150579565, 62.52825785997914 
130.2921138759342, -1.4771000376906651, 21.536968890184852, 34.12768573182195, 77.42650880067634, 62.529344451710145 
129.36087486183527, -1.4085664652101724, 21.53697707246673, 35.905942822068546, 77.18074904651452, 62.53054011700879 
128.43015483939058, -1.3337462775005757, 21.536985561756193, 37.59859160661792, 76.91762995295687, 62.5318441673486 
127.49999584448211, -1.2526628684746044, 21.536994238870392, 39.20534481891173, 76.63823501970198, 62.5332558527623 
126.57043889055036, -1.1653415254342612, 21.537002975294538, 40.726771929925235, 76.3436247670864, 62.534774362528196 
125.64152389449185, -1.071809406047298, 21.53701163337739, 42.16415434301119, 76.0348270677623, 62.53639882591066 
124.71328960463025, -0.9720955138509578, 21.53702006654075, 43.51934781923191, 75.71282992319247, 62.53812831295422 
123.78577353087145, -0.8662306723532535, 21.53702811950286, 44.79465624004265, 75.37857640633688, 62.53996183533007 
122.8590118771439, -0.754247497805526, 21.537035628515216, 45.99271908626423, 75.03296145928057, 62.541898347234 
121.93303947621489, -0.6361803707231883, 21.537042421612654, 47.11641363321403, 74.67683023044117, 62.5439367463345 
121.00788972696625, -0.5120654062340501, 21.537048318876238, 48.16877183608007, 74.31097765164897, 62.54607587476998 
120.0835945342007, -0.3819404233362458, 21.537053132708653, 49.1529111731664, 73.93614898327942, 62.5483145201937 
119.16018425104173, -0.2458449131497302, 21.537056668121835, 50.07197827439732, 73.5530410897783, 62.550651416865286 
118.23768762397975, -0.10382000624708135, 21.53705872303629, 50.92910392993861, 73.16230424399785, 62.55308524678718 
117.31613174060693, 0.044091560849315155, 21.537059088591793, 51.72736799369995, 72.76454429381819, 62.55561464088486 
116.39554198007387, 0.19784547991546833, 21.53705754946907, 52.46977272128099, 72.36032505676566, 62.5582381802292 
115.4759419662908, 0.35739590593056836, 21.537053884222054, 53.15922317343654, 71.95017083682409, 62.560954397299604 
114.55735352388756, 0.5226954925490004, 21.53704786562016, 53.79851344539437, 71.53456898203541, 62.5637617772862 
113.63979663693556, 0.6936954280502822, 21.53703926100027, 54.39031762852035, 71.11397242186607, 62.56665875942953 
112.72328941042792, 0.87034547167768, 21.537027832627885, 54.93718455968111, 70.68880213997473, 62.56964373839614 
111.80784803450348, 1.0525939902769936, 21.537013338066988, 55.44153555615156, 70.25944955137355, 62.57271506568853 
110.89348675139229, 1.2403879951475711, 21.536995530558105, 55.90566446478519, 69.82627876349386, 62.575871051087276 
109.98021782505324, 1.433673179018772, 21.536974159404124, 56.33173947082881, 69.3896287088042, 62.579109964124186 
109.06805151346494, 1.6323939530665525, 21.536948970363316, 56.721806213434434, 68.9498151428066, 62.582430035584444 
108.1569960435253, 1.8364934838860558, 21.536919706049037, 57.07779184196112, 68.50713250583408, 62.58582945903565 
107.24705758850756, 2.045913730338279, 21.536886106335615, 57.401509720602284, 68.06185565040771, 62.58930639238265 
106.33824024801457, 2.2605954801905037, 21.536847908769897, 57.694664550095396, 67.6142414382603, 62.59285895944567 
105.43054603036697, 2.4804783864726114, 21.53680484898784, 57.95885772577657, 67.16453021271496, 62.59648525156011 
104.52397483735635, 2.705501003473534, 21.536756661135698, 58.19559279252287, 66.71294715310546, 62.60018332919644 
103.61852445128818, 2.935600822304742, 21.536703078295194, 58.406280890585315, 66.25970351848218, 62.603951223597676 
102.71419052423691, 3.170714305960167, 21.536643832912105, 58.592246113218884, 65.80499778808239, 62.60778693843329 
101.81096656943022, 3.4107769238047063, 21.536578657227775, 58.75473071848408, 65.34901670603912, 62.611688451467145 
100.90884395467695, 3.655723185426453, 21.53650728371287, 58.894900154586495, 64.89193623763606, 62.61565371623763 
100.00781189775056, 3.9054866737903673, 21.536429445502932, 59.013847871463334, 64.4339224441327, 62.61968066374848 
99.1078574636372, 4.160000077634524, 21.536344876835063, 59.11259990170277, 63.975132282830195, 62.62376720416775 
98.20896556355652, 4.419195223052614, 21.53625331348524, 59.19211920187263, 63.515714338649765, 62.62791122853374 
97.311118955661, 4.683003104209987, 21.536154493205593, 59.25330975140969, 63.05580949307706, 62.63211061046546 
96.41429824732062, 4.951353913143015, 21.53604815616123, 59.29702041077095, 62.59555153590176, 62.636363207876094 
95.51848189889698, 5.224177068595208, 21.535934045365828, 59.324048543888836, 62.1350677247644, 62.64066686468733 
94.62364622891388, 5.5014012438461215, 21.5358119071156, 59.33514341236225, 61.67447929711885, 62.64501941254313 
93.72976542052949, 5.7829543934925605, 21.53568149142098, 59.33100935045954, 61.21390193883476, 62.6494186725205 
92.83681152921812, 6.06876377914424, 21.535542552435484, 59.312308731077266, 60.75344621330175, 62.653862456836094 
91.94475449157024, 6.358755993999401, 21.535394848881182, 59.27966473342051, 60.29321795455975, 62.65834857054655 
91.05356213512076, 6.652856986268626, 21.53523814447017, 59.23366392345497, 59.83331862766496, 62.66287481324049 
90.16320018911944, 6.950992081417924, 21.535072208321637, 59.17485865821063, 59.37384565921218, 62.66743898072118 
89.27363229615756, 7.253086003205316, 21.534896815373777, 59.10376932485854, 58.91489274066765, 62.67203886667746 
88.38482002456996, 7.559062893487418, 21.53471174679017, 59.02088642518851, 58.456550106922855, 62.676672264341626 
87.4967228815333, 7.868846330775654, 21.534516790360048, 58.926672515726366, 57.9989047922572, 62.68133696813237 
86.60929832678572, 8.182359347523954, 21.534311740891837, 58.82156401327723, 57.542040865695085, 62.68603077528147 
85.72250178689626, 8.499524446132716, 21.5340964005996, 58.705972875189744, 57.08603964755787, 62.69075148744219 
84.8362866700171, 8.82026361365567, 21.533870579481775, 58.58028816312419, 56.6309799088444, 62.695496912278344 
83.95060438105507, 9.144498335199296, 21.5336340956917, 58.44487749858879, 56.17693805492187, 62.700264865031954 
83.0654043372041, 9.472149606006145, 21.53338677589952, 58.30008841799406, 55.72398829487074, 62.70505317006867 
82.18063398378506, 9.803137942215777, 21.53312845564492, 58.14624963447118, 55.27220279770363, 62.709859662398664 
81.29623881034325, 10.137383390299332, 21.532858979680196, 57.98367221321409, 54.821651836564484, 62.71468218917244 
80.412162366961, 10.474805535165249, 21.532578202303334, 57.81265066663896, 54.37240392191317, 62.71951861114971 
79.52834628074541, 10.815323506936098, 21.532285987680524, 57.6334639752104, 53.9245259246074, 62.72436680413991 
78.64473027245997, 11.158855986397855, 21.53198221015771, 57.44637653936527, 53.47808318971143, 62.72922466041352 
77.76125217327105, 11.505321209125137, 21.531666754560813, 57.251639067569016, 53.03313964178438, 62.73409009008251 
76.87784794158951, 11.854636968287144, 21.53133951648412, 57.04948940517023, 52.58975788233369, 62.738961022449125 
75.9944516799905, 12.206720616141169, 21.531000402566583, 56.840153308371924, 52.147999280056496, 62.74383540732125 
75.11099565220341, 12.561489064221641, 21.530649330755562, 56.62384516731616, 51.70792405443641, 62.74871121629401 
74.22741030016833, 12.918858782234528, 21.530286230557596, 56.40076868197805, 51.269591353212206, 62.75358644399598 
73.3436242611629, 13.278745795668224, 21.529911043276055, 56.171117494286534, 50.83305932418886, 62.758459109299054 
72.45956438500983, 13.641065682133458, 21.529523722235155, 55.93507577963104, 50.39838518182029, 62.76332725649136 
71.57515575138198, 14.005733566446349, 21.52912423299005, 55.692818800673585, 49.965625268954675, 62.76818895641191 
70.69032168722947, 14.372664114469774, 21.52871255352285, 55.44451342616501, 49.534835114099984, 62.773042307546326 
69.80498378435948, 14.741771525730067, 21.52828867442414, 55.19031861725901, 49.106069484535304, 62.77788543708269 
68.91906191720803, 15.112969524826902, 21.527852599059685, 54.93038588362908, 48.67938243556627, 62.78271650192674 
