# MEX_intpoint_lon [deg], MEX_intpoint_lat [deg], MEX_intpoint_angle [deg], TGO_intpoint_lon [deg], TGO_intpoint_lat [deg], TGO_intpoint_angle [deg] 
-138.06625758808468, 19.28147066715839, 20.95402200726121, -27.390162665514218, 50.494099015021575, 62.70276381008995 
-138.98301457724224, 18.924454612227525, 20.95452738205299, -27.849722570898592, 50.85336355685741, 62.69876026197649 
-139.89818243497982, 18.568332839168836, 20.955023548713925, -28.307511931111595, 51.21534534845394, 62.69473780860185 
-140.8118464294621, 18.213194262912907, 20.955510367180082, -28.763512143435342, 51.58001139984042, 62.69069770357437 
-141.7240907251299, 17.859127181013207, 20.955987708539332, -29.217703803567836, 51.94732869997834, 62.68664122426433 
-142.63499834866997, 17.50621928683904, 20.956455455047013, -29.670066635176678, 52.31726421972062, 62.68256967137459 
-143.5446511564685, 17.15455768220592, 20.95691350012823, -30.1205794148623, 52.68978491452491, 62.678484368482074 
-144.4531298034365, 16.804228889402594, 20.95736174836664, -30.56921989214833, 53.06485772691543, 62.6743866615505 
-145.36051371310307, 16.455318862575634, 20.95780011547991, -31.015964704080123, 53.44244958868834, 62.670277918414335 
-146.26688104887862, 16.10791299843534, 20.958228528281772, -31.460789283969113, 53.822527422853966, 62.66615952823442 
-147.1723086863973, 15.762096146247961, 20.958646924630912, -31.903667763775623, 54.205058145309486, 62.66203290092531 
-148.0768721868537, 15.417952617082152, 20.95905525336674, -32.34457286956958, 54.59000866623413, 62.65789946655495 
-148.98064577125663, 15.075566192278721, 20.95945347423204, -32.78347580945167, 54.977345891198155, 62.653760674716715 
-149.8837022955282, 14.735020131114924, 20.959841557782855, -33.22034615325281, 55.36703672197627, 62.649617993874415 
-150.78611322638278, 14.396397177636509, 20.96021948528556, -33.655151703257616, 55.75904805705408, 62.645472910680596 
-151.6879486179279, 14.05977956663194, 20.96058724860141, -34.08785835511741, 56.15334679181571, 62.64132692926847 
-152.58927708893333, 13.72524902872561, 20.960944850058606, -34.518429948027624, 56.549899818398494, 62.63718157051822 
-153.4901658007228, 13.392886794567719, 20.961292302312312, -34.94682810314366, 56.94867402519932, 62.633038371297914 
-154.39068043564657, 13.062773598100982, 20.961629628192522, -35.373012049095, 57.34963629601484, 62.628898883679575 
-155.29088517610137, 12.734989678885121, 20.9619568605402, -35.796938433329764, 57.75275350879616, 62.62476467413133 
-156.19084268406675, 12.409614783462347, 20.962274042031975, -36.218561117877, 58.15799253399503, 62.620637322685745 
-157.09061408113647, 12.08672816574816, 20.962581224993393, -36.63783095795161, 58.56532023247702, 62.61651842208525 
-157.99025892902503, 11.766408586433784, 20.962878471201304, -37.05469556164157, 58.974703452972605, 62.61240957690543 
-158.8898352105377, 11.44873431138774, 20.963165851675345, -37.46909902870912, 59.38610902903434, 62.60831240265641 
-159.7893993109966, 11.133783109045984, 20.963443446459134, -37.88098166629948, 59.79950377546346, 62.60422852486366 
-160.68900600011975, 10.821632246781627, 20.96371134439112, -38.290279679081976, 60.21485448416489, 62.60015957812846 
-161.5887084143569, 10.512358486246555, 20.963969642865795, -38.696924831040455, 60.63212791938374, 62.59610720516918 
-162.48855803968857, 10.206038077679626, 20.964218447585246, -39.10084407577987, 61.051290812270445, 62.59207305584375 
-163.38860469490132, 9.902746753176979, 20.964457872301562, -39.501959151814894, 61.47230985471437, 62.588058786154654 
-164.28889651535545, 9.602559718922492, 20.964688038550474, -39.90018613884682, 61.89515169237738, 62.58406605723684 
-165.1894799372668, 9.3055516463777, 20.964909075376447, -40.295434970508026, 62.3197829168498, 62.58009653432998 
-166.09039968252748, 9.011796662432552, 20.965121119049773, -40.68760889844567, 62.746170056839524, 62.57615188573502 
-166.99169874409563, 8.721368338520147, 20.965324312775817, -41.0766039019173, 63.17427956829365, 62.572233781757404 
-167.89341837198728, 8.434339678700507, 20.965518806397068, -41.462308036261064, 63.60407782333607, 62.5683438936363 
-168.79559805990723, 8.150783106720482, 20.965704756088176, -41.844600712666534, 64.03553109788889, 62.564483892462185 
-169.69827553255993, 7.870770452058711, 20.965882324044518, -42.223351900583715, 64.46860555782509, 62.5606554480829 
-170.60148673368423, 7.594372934966745, 20.966051678164604, -42.59842124284032, 64.90326724347736, 62.55686022799961 
-171.5052658148588, 7.321661150519536, 20.96621299172688, -42.96965707205823, 65.33948205230156, 62.55309989625352 
-172.4096451251283, 7.052705051690521, 20.966366443061144, -43.336895315229214, 65.77721571946147, 62.549376112304586 
-173.31465520150323, 6.7875739314686925, 20.966512215215293, -43.69995827127856, 66.21643379606573, 62.54569052990311 
-174.2203247603874, 6.526336404037518, 20.9666504956176, -44.05865324405364, 66.65710162474376, 62.542044795955306 
-175.12668068999173, 6.269060385037431, 20.96678147573507, -44.412771010353595, 67.09918431219715, 62.53844054938423 
-176.03374804379158, 6.015813070936191, 20.9669053507283, -44.762084099273935, 67.54264669830232, 62.53487941998679 
-176.9415500350899, 5.766660917533633, 20.967022319103414, -45.10634485517224, 67.98745332126833, 62.53136302728824 
-177.85010803274662, 5.521669617629594, 20.967132582361277, -45.445283251832436, 68.4335683782683, 62.52789297939516 
-178.75944155813838, 5.280904077886176, 20.9672363446447, -45.77860441975105, 68.88095568086004, 62.52447087184829 
-179.66956828341145, 5.044428394918004, 20.967333812384062, -46.105985841685325, 69.32957860438842, 62.52109828647594 
179.41949596890797, 4.812305830646236, 20.967425193941583, -46.42707416343366, 69.77940003041357, 62.51777679024973 
178.50773722488196, 4.584598786954599, 20.96751069925511, -46.74148155694269, 70.23038228102898, 62.514507934143225 
177.59514335664431, 4.36136877968813, 20.967590539481474, -47.048781560850124, 70.68248704371477, 62.51129325199544 
176.68170407833543, 4.142676412037312, 20.967664926640285, -47.34850430896457, 71.13567528510532, 62.50813425937916 
175.7674109404277, 3.928581347353012, 20.967734073258182, -47.640131039307356, 71.58990715172209, 62.505032452476755 
174.85225732237961, 3.7191422814393973, 20.967798192014556, -47.92308775436113, 72.04514185532106, 62.50198930696351 
173.93623842356064, 3.5144169143746047, 20.967857495388603, -48.19673787602417, 72.50133754000372, 62.49900627690004 
173.0193512523897, 3.3144619219107363, 20.967912195308802, -48.460373705073245, 72.95845112762171, 62.496084793635376 
172.10159461363278, 3.1193329265069933, 20.967962502804617, -48.71320645290372, 73.41643813722854, 62.49322626472104 
171.18296909380882, 2.929084468051692, 20.968008627661554, -48.954354560596165, 73.87525247335616, 62.49043207283816 
170.26347704465502, 2.743769974330597, 20.96805077807946, -49.18282995387135, 74.33484617666116, 62.48770357473822 
169.3431225646072, 2.5634417313010287, 20.968089160334877, -49.39752179815413, 74.79516912891438, 62.48504210019866 
168.42191147825508, 2.3881508532326077, 20.9681239784477, -49.5971772103243, 75.25616870229737, 62.482448950994915 
167.49985131373498, 2.2179472527770887, 20.968155433852765, -49.780378245469024, 75.71778934037727, 62.479925399889275 
166.5769512780294, 2.0528796110310905, 20.968183725076443, -49.94551429816615, 76.1799720547648, 62.47747268963854 
165.65322223014564, 1.8929953476566372, 20.968209047419233, -50.09074882501483, 76.64265381705765, 62.47509203202077 
164.7286766521526, 1.7383405911255951, 20.96823159264418, -50.2139789897209, 77.10576681986518, 62.47278460688283 
163.80332861805957, 1.5889601491548193, 20.968251548671894, -50.312786428298075, 77.56923757299188, 62.47055156120939 
162.8771937605269, 1.444897479399551, 20.968269099282512, -50.38437679385678, 78.03298579050455, 62.46839400821464 
161.95028923540409, 1.3061946604729968, 20.96828442382488, -50.42550501720019, 78.49692301039322, 62.46631302645783 
161.02263368409803, 1.1728923633604162, 20.968297696933476, -50.43238223863925, 78.96095086937626, 62.46430965898332 
160.09424719377992, 1.0450298232959327, 20.96830908825334, -50.40055902392881, 79.42495892893162, 62.462384912486385 
159.1651512554456, 0.9226448121702995, 20.968318762173467, -50.324777621746414, 79.8888219116662, 62.46053975650566 
158.23536871985254, 0.8057736115371693, 20.968326877568924, -50.198783429753306, 80.35239615489, 62.458775122643125 
157.30492375136149, 0.6944509862851904, 20.968333587552117, -50.01508218222987, 80.81551501350565, 62.457091903812696 
156.37384177971893, 0.5887101590419382, 20.968339039233474, -49.76462416294374, 81.27798283595386, 62.45549095351776 
155.44214944982411, 0.4885827853750108, 20.96834337349191, -49.43638924088287, 81.7395669776628, 62.45397308515935 
154.50987456952933, 0.39409892985394007, 20.968346724755257, -49.01683559802332, 82.19998707887945, 62.452539071374865 
153.57704605553124, 0.3052870430352197, 20.968349220791247, -48.489158951465726, 82.6589004740339, 62.451189643408966 
152.6436938774168, 0.22217393943082922, 20.96835098250883, -47.832285255346996, 83.11588204647876, 62.4499254905165 
151.70984899993414, 0.1447847765186112, 20.968352123770668, -47.019484370334965, 83.57039597776192, 62.44874725939886 
150.77554332356533, 0.07314303485056303, 20.968352751216575, -46.0164392738235, 84.02175546809292, 62.44765555367415 
149.8408096234852, 0.007270499312678096, 20.96835296409838, -44.778527285067156, 84.46906429469806, 62.44665093338179 
148.90568148699492, -0.052812758412900035, 20.968352854126422, -43.24695796070429, 84.911130475855, 62.445733914522144 
147.97019324952663, -0.10708839613540366, 20.968352505327765, -41.34326423191189, 85.34633641843955, 62.44490496863173 
147.03437992931973, -0.15553981614791446, 20.96835199391645, -38.961487023046075, 85.77244036619497, 62.44416452239455 
146.0982771608754, -0.19815217888327852, 20.968351388175858, -35.9573660415668, 86.18626901220338, 62.44351295728994 
145.16192112730033, -0.23491241519551714, 20.968350748353426, -32.134427401612086, 86.58324020370236, 62.44295060927748 
144.2253484916559, -0.2658092372323473, 20.968350126567717, -27.22946961089624, 86.95663492961332, 62.442477768519076 
143.2885963274312, -0.2908331478684403, 20.9683495667282, -20.908246001992985, 87.29655727497162, 62.44209467913895 
142.35170204826474, -0.3099764486726776, 20.968349104467567, -12.802787533288567, 87.58871018846439, 62.44180153902129 
141.41470333703973, -0.32323324638706225, 20.968348767086912, -2.6545954435549013, 87.81377423347162, 62.44159849964638 
140.47763807448254, -0.33059945789881134, 20.968348573513694, 9.384142516095716, 87.94947607791009, 62.441485665965025 
139.5405442673952, -0.33207281369157776, 20.968348534272597, 22.452873009689117, 87.97771060404183, 62.441463096311345 
138.60345997665382, -0.327652859766, 20.968348651469384, 35.160202984319604, 87.89414405572838, 62.44153080235471 
137.66642324510707, -0.317340958024075, 20.968348918787623, 46.31293354913773, 87.71100701776317, 62.441688749089685 
136.7294720255078, -0.3011402851162874, 20.968349321498383, 55.42436883210208, 87.44969862046706, 62.44193685486535 
135.79264410861197, -0.27905582975477794, 20.96834983648295, 62.59339762769558, 87.13155689451452, 62.44227499145288 
134.8559770515776, -0.25109438850017435, 20.968350432268387, 68.16087921597206, 86.77341436762507, 62.442702984151865 
133.91950810679546, -0.21726456003408168, 20.968351069075947, 72.48732745820038, 86.38722102662165, 62.44322061193528 
132.98327415128156, -0.17757673793340778, 20.96835169888236, 75.87243395130689, 85.98113537237701, 62.44382760763243 
132.04731161675883, -0.13204310196709065, 20.968352265493813, 78.54444377549522, 85.56069805850764, 62.44452365815015 
131.1116564205532, -0.08067760793957034, 20.9683527046325, 80.6718326957276, 85.12971351137307, 62.44530840473194 
130.1763438974252, -0.023495976109828665, 20.96835294403578, 82.37815283063932, 84.69084192786562, 62.44618144325436 
129.24140873245494, 0.03948432178182786, 20.968352903567624, 83.75446748075207, 84.24598252126381, 62.44714232456088 
128.30688489509404, 0.10824407684292196, 20.96835249534236, 84.86858965653703, 83.79652028866504, 62.448190554832244 
127.37280557449284, 0.1827623586742107, 20.968351623860453, 85.77165397505891, 83.34348627672011, 62.44932559599314 
126.43920311620744, 0.26301653228815225, 20.968350186156147, 86.50272888335932, 82.88766323123545, 62.450546866155115 
125.5061089603843, 0.3489822762541059, 20.968348071956854, 87.09205419890031, 82.42965646865242, 62.45185374009433 
124.57355358151503, 0.4406336020207781, 20.968345163854, 87.56332934218568, 81.96994228609172, 62.4532455497643 
123.64156642984842, 0.5379428743637651, 20.968341337485104, 87.93534703100258, 81.50890162267767, 62.45472158484269 
122.71017587453944, 0.6408808329032589, 20.968336461726903, 88.22317321322748, 81.04684386783705, 62.45628109331181 
121.77940914860949, 0.7494166146346802, 20.968330398899212, 88.43900959040431, 80.58402397354722, 62.45792328207183 
120.84929229578478, 0.863517777412889, 20.968323004979307, 88.59283172460079, 80.12065494018063, 62.459647317585926 
119.91985011927315, 0.9831503243285726, 20.96831412982645, 88.69286665688315, 79.65691705527156, 62.46145232655699 
118.99110613253308, 1.1082787289137832, 20.96830361741639, 88.74595442150692, 79.19296481927425, 62.463337396635026 
118.06308251208088, 1.2388659611121455, 20.96829130608542, 88.75782460422865, 78.72893220060963, 62.46530157715394 
117.13580005237583, 1.3748735139480175, 20.96827702878375, 88.73331004765207, 78.26493666812743, 62.46734387989751 
116.20927812281563, 1.5162614308278828, 20.968260613337755, 88.67651356168439, 77.80108231795487, 62.46946327989331 
115.28353462686788, 1.6629883334065918, 20.968241882720864, 88.59093914005186, 77.33746232184795, 62.47165871623365 
114.35858596335596, 1.8150114499504124, 20.968220655332722, 88.47959611127634, 76.87416086176563, 62.473929092922724 
113.43444698991156, 1.9722866441287572, 20.968196745286146, 88.3450824629625, 76.41125467150395, 62.47627327974906 
112.5111309885993, 2.1347684441662076, 20.96816996270158, 88.18965200190351, 75.94881427499018, 62.4786901131819 
111.58864963371228, 2.3024100722867002, 20.968140114008754, 88.01526886637915, 75.48690498834773, 62.48117839729102 
110.66701296173142, 2.4751634743821698, 20.968107002254886, 87.82365206573517, 75.02558773647664, 62.48373690468865 
109.7462293434357, 2.6529793498383416, 20.9680704274193, 87.6163120991722, 74.56491972286378, 62.48636437749238 
108.82630545814412, 2.835807181451303, 20.968030186733913, 87.39458124005188, 74.10495498240749, 62.48905952830802 
107.90724627006574, 3.023595265369248, 20.96798607500911, 87.15963872122416, 73.6457448403547, 62.49182104123175 
106.98905500672765, 3.216290740995114, 20.967937884964766, 86.91253179047854, 73.1873382953969, 62.49464757286948 
106.07173313944779, 3.413839620786851, 20.96788540756573, 86.65419340138631, 72.7297823411263, 62.497537753373486 
105.15528036581301, 3.616186819893725, 20.967828432361582, 86.3854571477123, 72.27312223710064, 62.50049018749409 
104.23969459412073, 3.8232761855684427, 20.967766747830016, 86.10706992767764, 71.81740173848581, 62.50350345564609 
103.32497192973659, 4.035050526296667, 20.967700141723515, 85.81970272914698, 71.36266329146865, 62.50657611498825 
102.41110666331932, 4.251451640587309, 20.967628401418803, 85.52395985198552, 70.90894820024221, 62.50970670051471 
101.49809126085928, 4.472420345368742, 20.967551314268654, 85.22038682466857, 70.45629677026983, 62.51289372615765 
100.58591635547523, 4.6978965039383995, 20.967468667955554, 84.90947722518348, 70.00474843166403, 62.51613568589943 
99.67457074091159, 4.927819053414872, 20.967380250846787, 84.59167857865404, 69.55434184582381, 62.51943105489311 
98.76404136667611, 5.16212603164418, 20.96728585235043, 84.26739747389136, 69.1051149979177, 62.522778290590665 
97.8543133347571, 5.400754603513803, 20.967185263271887, 83.93700401666331, 68.65710527735172, 62.52617583387702 
96.94536989785686, 5.643641086630576, 20.96707827617036, 83.60083571766341, 68.21034954799893, 62.529622110209374 
96.03719245907898, 5.890720976320504, 20.96696468571487, 83.25920089700978, 67.7648842096718, 62.53311553075999 
95.12976057300436, 6.141928969911349, 20.966844289039344, 82.912381673879, 67.32074525207682, 62.53665449356185 
94.2230519480932, 6.397198990260641, 20.966716886096325, 82.56063659900684, 66.87796830229354, 62.540237384655555 
93.31704245034811, 6.656464208494674, 20.966582280008762, 82.20420297880855, 66.43658866665577, 62.54386257923682 
92.4117061081758, 6.9196570659258985, 20.966440277419498, 81.84329893243164, 65.99664136777831, 62.54752844280251 
91.50701511838449, 7.186709295118809, 20.96629068883798, 81.478125216863, 65.55816117735979, 62.55123333229539 
90.60293985325565, 7.45755194007673, 20.96613332898365, 81.10886685004407, 65.12118264529832, 62.55497559724502 
89.69944886863094, 7.732115375523945, 20.96596801712571, 80.73569455761823, 64.6857401255789, 62.558753580904884 
88.79650891295516, 8.010329325260347, 20.96579457741865, 80.35876606529406, 64.25186779932481, 62.56256562138374 
87.89408493722046, 8.292122879567632, 20.965612839233266, 79.97822725573897, 63.8195996953507, 62.56641005277071 
86.99214010575645, 8.577424511648601, 20.965422637482543, 79.59421320632131, 63.388969708507034, 62.57028520625269 
86.09063580781655, 8.8661620930831, 20.96522381294216, 79.20684912181564, 62.96001161606702, 62.574189411223166 
85.18953166991074, 9.158262908286517, 20.965016212565, 78.81625117431122, 62.53275909237235, 62.57812099638118 
84.28878556883994, 9.453653667958575, 20.964799689789437, 78.42252726096484, 62.1072457219258, 62.58207829081993 
83.38835364538953, 9.752260521512511, 20.964574104840846, 78.02577768886906, 61.683505011093985, 62.586059625103154 
82.48819031864289, 10.054009068476585, 20.964339325025993, 77.62609579513457, 61.26157039856222, 62.59006333232929 
81.5882483008803, 10.358824368861821, 20.9640952250199, 77.22356850927423, 60.84147526466576, 62.59408774918154 
80.68847861303078, 10.666630952491978, 20.96384168714482, 76.8182768641065, 60.4232529397052, 62.59813121696367 
79.7888306006506, 10.97735282729338, 20.963578601640908, 76.4102964606439, 60.006936711341616, 62.602192082620036 
78.88925195040389, 11.290913486544392, 20.96330586692825, 75.99969789177958, 59.59255983115361, 62.60626869973917 
77.98968870702745, 11.607235915085724, 20.963023389859913, 75.58654712902091, 59.180155520430105, 62.61035942954024 
77.09008529076448, 11.926242594494987, 20.962731085965594, 75.17090587602547, 58.769756975262396, 62.61446264184116 
76.19038451525793, 12.247855507230081, 20.962428879685667, 74.75283189226654, 58.361397370992236, 62.61857671600797 
75.29052760589771, 12.571996139748373, 20.96211670459519, 74.3323792897806, 57.95510986606548, 62.62270004188419 
74.39045421862221, 12.898585484609526, 20.96179450361756, 73.90959880562049, 57.55092760533544, 62.62683102069981 
73.49010245917876, 13.227544041572033, 20.961462229227664, 73.4845380523511, 57.14888372285443, 62.63096806595914 
72.58940890285265, 13.558791817695067, 20.961119843644084, 73.0572417486707, 56.74901134418783, 62.63510960430645 
71.68830861468085, 13.892248326458397, 20.960767319010102, 72.62775193201966, 56.35134358828118, 62.63925407636916 
70.7867351701703, 14.227832585915444, 20.960404637563414, 72.19610815484052, 55.95591356890657, 62.643399937577676 
69.88462067654794, 14.565463115895382, 20.96003179179408, 71.76234766598162, 55.56275439571279, 62.64754565896149 
68.98189579457365, 14.905057934272493, 20.9596487845906, 71.32650557858196, 55.171899174899515, 62.651689727920555 
68.07848976095455, 15.246534552321892, 20.959255629373956, 70.88861502563957, 54.7833810095349, 62.655830648971886 
