# MEX_intpoint_lon [deg], MEX_intpoint_lat [deg], MEX_intpoint_angle [deg], TGO_intpoint_lon [deg], TGO_intpoint_lat [deg], TGO_intpoint_angle [deg] 
-138.4176291585623, 19.371495928802872, 21.174271397062025, -27.722770940707203, 48.02309017851969, 62.75215121531261 
-139.32760581157874, 19.001909085369288, 21.17480248229052, -28.120818679329517, 48.400538298711126, 62.7478754188696 
-140.23597571220225, 18.633280234112952, 21.175323602612014, -28.515910116906564, 48.78073559055892, 62.7435762518611 
-141.1428293195121, 18.26569991200673, 21.175834611282344, -28.90799110827905, 49.163644167328776, 62.739255056932805 
-142.04825584668544, 17.899258022011004, 21.176335373627335, -29.29700511414407, 49.54922603697597, 62.73491320594536 
-142.9523432298431, 17.534043849146958, 21.17682576705839, -29.68289303844638, 49.93744309849822, 62.73055209950926 
-143.8551780983115, 17.170146075886425, 21.177305681073523, -30.06559305512911, 50.32825713754229, 62.72617316648443 
-144.756845746176, 16.80765279681827, 21.17777501724382, -30.44504042338786, 50.721629821222756, 62.72177786344454 
-145.65743010501316, 16.446651532553062, 21.178233689185465, -30.821167290492024, 51.11752269210722, 62.717367674106136 
-146.5570137176933, 16.087229242830617, 21.178681622517267, -31.193902481149042, 51.51589716131747, 62.71294410872314 
-147.45567771315538, 15.72947233879625, 21.179118754803973, -31.56317127228949, 51.9167145006916, 62.70850870344689 
-148.35350178206247, 15.373466694414343, 21.17954503548528, -31.92889515204293, 52.31993583394579, 62.704063019651834 
-149.2505641532534, 15.019297656989187, 21.1799604257908, -32.29099156155471, 52.72552212676887, 62.69960864322792 
-150.14694157091478, 14.66705005676491, 21.1803648986411, -32.6493736181614, 53.133434175775314, 62.695147183839346 
-151.04270927240304, 14.316808215578435, 21.18075843853495, -33.00394981829504, 53.54363259623471, 62.690680274150566 
-151.93794096665488, 13.968655954540473, 21.181141041422936, -33.35462371832268, 53.956077808487336, 62.68620956902005 
-152.8327088131299, 13.62267660072181, 21.181512714567692, -33.70129359134569, 54.37073002294524, 62.68173674466235 
-153.72708340123745, 13.278952992823221, 21.18187347639094, -34.04385205778022, 54.78754922356797, 62.67726349777874 
-154.6211337302048, 12.93756748580937, 21.182223356307517, -34.382185687313935, 55.2064951496895, 62.672791544657436 
-155.51492718935188, 12.598601954488108, 21.182562394546675, -34.716174569581334, 55.6275272760598, 62.66832262024398 
-156.4085295387427, 12.262137796018703, 21.182890641960938, -35.04569185061744, 56.050604790948604, 62.66385847718238 
-157.3020048901907, 11.92825593133342, 21.183208159822655, -35.370603231833215, 56.47568657214264, 62.65940088482764 
-158.19541568860092, 11.597036805459052, 21.18351501960874, -35.690766427901494, 56.90273116064751, 62.654951628230876 
-159.08882269363826, 11.268560386725998, 21.183811302773684, -36.006030579544195, 57.331696731884264, 62.65051250709722 
-159.98228496171623, 10.942906164854433, 21.184097100511327, -36.31623561676403, 57.76254106414612, 62.646085334718066 
-160.87585982830663, 10.620153147908571, 21.18437251350556, -36.62121156756098, 58.195221504052974, 62.641671936877735 
-161.76960289057638, 10.30037985811152, 21.184637651670506, -36.920777806606125, 58.629694928710364, 62.63727415073637 
-162.66356799036222, 9.983664326515232, 21.184892633880253, -37.21474223770528, 59.06591770424401, 62.632893823688995 
-163.55780719750047, 9.670084086521289, 21.18513758768878, -37.50290040316177, 59.50384564034074, 62.6285328122029 
-164.45237079353217, 9.359716166250527, 21.185372649040286, -37.78503451232871, 59.94343394038151, 62.624192980633154 
-165.34730725581133, 9.05263707976079, 21.18559796197035, -38.06091238071368, 60.384637146699305, 62.61987620001823 
-166.24266324204606, 8.748922817114419, 21.185813678298363, -38.33028626994548, 60.82740908043668, 62.61558434685635 
-167.13848357530935, 8.448648833298622, 21.18601995731156, -38.59289161771642, 61.271702775408905, 62.611319301863745 
-168.0348112295582, 8.151890036004062, 21.186216965441186, -38.848445645450894, 61.717470405302066, 62.60708294871617 
-168.93168731570594, 7.858720772268994, 21.186404875931114, -39.09664582989849, 62.16466320344603, 62.602877172774306 
-169.8291510682961, 7.569214813998238, 21.18658386849944, -39.33716822307689, 62.61323137430112, 62.59870385979514 
-170.72723983282825, 7.283445342368544, 21.186754128993456, -39.56966560296268, 63.06312399567921, 62.59456489462944 
-171.62598905379244, 7.001484931134164, 21.186915849038474, -39.79376543500672, 63.51428891058514, 62.590462159907595 
-172.52543226346967, 6.723405528848554, 21.18706922568094, -40.00906762188822, 63.96667260740826, 62.5863975347144 
-173.4256010715609, 6.44927844002048, 21.187214461026432, -40.215142015863826, 64.42022008701336, 62.58237289325432 
-174.32652515570769, 6.17917430522541, 21.187351761872765, -40.41152566454939, 64.8748747150698, 62.57839010350868 
-175.2282322529726, 5.913163080195086, 21.187481339338966, -40.59771975692001, 65.33057805771519, 62.57445102588575 
-176.13074815234674, 5.651314013911068, 21.187603408490478, -40.77318623163704, 65.78726969836553, 62.57055751186559 
-177.03409668835656, 5.393695625730307, 21.18771818796099, -40.93734400440892, 66.24488703315268, 62.56671140264039 
-177.93829973584135, 5.140375681573339, 21.187825899571646, -41.089564764842464, 66.70336504208326, 62.5629145277523 
-178.84337720597574, 4.891421169208437, 21.187926767947864, -41.22916828600046, 67.16263603255835, 62.55916870372983 
-179.74934704361098, 4.646898272667559, 21.188021020134435, -41.355417181484995, 67.62262935136046, 62.555475732724126 
179.3437747739897, 4.406872345832503, 21.188108885209388, -41.46751103511579, 68.083271060586, 62.551837401146834 
178.4359742369462, 4.17140788523234, 21.188190593897016, -41.56457981694368, 68.54448357226043, 62.54825547831087 
177.52723930101305, 3.9405685020958963, 21.188266378180792, -41.6456764861624, 69.00618523549588, 62.544731715075386 
176.61755988421191, 3.714416893705443, 21.18833647091639, -41.709768666151085, 69.46828986901228, 62.54126784249656 
175.70692786177284, 3.493014814100561, 21.18840110544563, -41.75572925903686, 69.93070623060731, 62.53786557048559 
174.79533705931186, 3.276423044183451, 21.188460515211624, -41.78232584640587, 70.3933374136903, 62.53452658647539 
173.882783244175, 3.0647013612796834, 21.18851493337569, -41.78820869864832, 70.85608015923916, 62.53125255409732 
172.96926411488113, 2.8579085082104987, 21.188564592436595, -41.771897187384546, 71.31882406944129, 62.5280451118694 
172.05477928859855, 2.656102161935463, 21.188609723852643, -41.73176436292281, 71.78145070676416, 62.52490587189778 
171.13933028659335, 2.4593389018262157, 21.188650557666925, -41.66601942115246, 72.24383255918221, 62.52183641859228 
170.22292051759123, 2.2676741776343974, 21.188687322136428, -41.57268774108656, 72.70583184865768, 62.518838307398156 
169.30555525899828, 2.0811622772188203, 21.188720243365434, -41.44958812490457, 73.16729915560339, 62.515913063544886 
168.3872416359308, 1.8998562940988122, 21.18874954494359, -41.2943068164267, 73.6280718267895, 62.51306218081377 
167.46798859800893, 1.7238080949025267, 21.18877544758933, -41.10416781141015, 74.08797212780811, 62.51028712032549 
166.5478068938737, 1.5530682867804935, 21.188798168798822, -40.87619890438617, 74.54680509355347, 62.50758930934944 
165.62670904339348, 1.3876861848561768, 21.188817922501247, -40.60709284340107, 75.00435602095446, 62.504970140135484 
164.7047093075304, 1.2277097797865753, 21.18883491872059, -40.293162888997294, 75.46038753710606, 62.50243096877021 
163.7818236558456, 1.0731857055069427, 21.188849363244508, -39.930292002578135, 75.91463616265554, 62.499973114058534 
162.85806973162636, 0.9241592072345214, 21.188861457300728, -39.513874831379056, 76.36680827444962, 62.49759785643202 
161.93346681462685, 0.7806741098067876, 21.188871397241307, -39.038751628119044, 76.8165753526965, 62.49530643688548 
161.0080357814205, 0.6427727864302046, 21.188879374235295, -38.49913326781023, 77.26356837596478, 62.493100055942826 
160.08179906336997, 0.5104961279154974, 21.188885573970108, -37.888516640964646, 77.70737120213182, 62.49097987265317 
159.1547806022277, 0.3838835124754939, 21.188890176362023, -37.199589971279806, 78.14751274517401, 62.48894700361913 
158.22700580338778, 0.2629727761611005, 21.18889335527625, -36.42412811734638, 78.58345772740469, 62.487002522057466 
157.29850148681868, 0.14780018401048142, 21.18889527825683, -35.55287880708645, 79.01459575654985, 62.485147456894175 
156.36929583571316, 0.038400401985513984, 21.188896106266846, -34.57544221849698, 79.44022845105543, 62.48338279189432 
155.4394183429004, -0.065193530231442, 21.18889599343914, -33.480148644678835, 79.85955432268429, 62.4817094648281 
154.50889975507337, -0.16295022550892171, 21.188895086838038, -32.25394255998306, 80.271651135441, 62.48012836667395 
153.57777201489245, -0.25483997453611446, 21.188893526232267, -30.88228676350089, 80.67545551482911, 62.47864034085984 
152.6460682010338, -0.34083477002302837, 21.1888914438794, -29.349108070354795, 81.06973971387033, 62.477246182543375 
151.71382246625956, -0.4209083297654731, 21.188888964322143, -27.636816968711987, 81.45308570112398, 62.475946637931884 
150.78106997359384, -0.4950361185118146, 21.188886204196677, -25.72644834649751, 81.82385719103979, 62.474742403643184 
149.84784683069637, -0.5631953685710438, 21.188883272053406, -23.59798881700806, 82.18017098093509, 62.47363412610762 
148.91419002253267, -0.6253650991049644, 21.18888026819026, -21.230976871623213, 82.51987009973215, 62.472622401012586 
147.9801373424456, -0.6815261340503873, 21.188877284498723, -18.605480638326508, 82.84050290716517, 62.47170777278963 
147.04572732174202, -0.7316611186207983, 21.188874404323, -15.703564944762839, 83.13931442611633, 62.470890734145264 
146.11099915791075, -0.775754534340683, 21.188871702332282, -12.51133803776746, 83.41325865976283, 62.47017172563574 
145.17599264159728, -0.8137927125696325, 21.188869244406416, -9.0215948302056, 83.65904286286376, 62.46955113528641 
144.2407480824633, -0.845763846477427, 21.188867087535044, -5.236922870122215, 83.87321553753068, 62.46902929825617 
143.30530623406526, -0.8716580014356062, 21.188865279730475, -1.1729005523792013, 84.0523075234278, 62.46860649654747 
142.36970821788913, -0.8914671237955059, 21.188863859954193, 3.139268119257233, 84.19302800677984, 62.46828295876195 
141.43399544668378, -0.9051850480272745, 21.188862858057345, 7.651559417375142, 84.29250373895948, 62.468058859902335 
140.49820954723626, -0.9128075021991225, 21.188862294735106, 12.300234593491782, 84.34853234503906, 62.467934321220866 
139.5623922827366, -0.9143321117808483, 21.188862181495047, 17.009690411294613, 84.35980552333169, 62.46790941011401 
138.62658547488, -0.9097584017605019, 21.188862520639567, 21.69872511561743, 84.32605384598816, 62.46798414006395 
137.69083092585683, -0.8990877970680129, 21.188863305262363, 26.288039621835566, 84.24807772331486, 62.46815847062693 
136.75517034037995, -0.8823236213046076, 21.188864519258978, 30.707312247212478, 84.12765656282076, 62.46843230746846 
135.81964524789947, -0.8594710937815934, 21.18886613735143, 34.90035477384688, 83.9673591165061, 62.46880550244501 
134.88429692515453, -0.8305373248773146, 21.18886812512682, 38.8275763454147, 83.7702990896532, 62.46927785373242 
133.94916631920913, -0.7955313097256936, 21.18887043908994, 42.46584705044698, 83.53988414131814, 62.46984910600108 
133.01429397111852, -0.7544639202548237, 21.18887302672978, 45.806467141172625, 83.27959575689009, 62.4705189506369 
132.07971994036836, -0.7073478955987091, 21.18887582659984, 48.85215137127488, 82.99282021533503, 62.471287026008596 
131.14548373022677, -0.6541978309098567, 21.188878768412142, 51.61381299984705, 82.68273488597228, 62.47215291778062 
130.21162421414493, -0.5950301646051587, 21.18888177314487, 54.10765955359625, 82.3522435153749, 62.47311615927128 
129.2781795633378, -0.529863164081525, 21.188884753163375, 56.35284258916334, 82.00394940586652, 62.474176231855544 
128.34518717567124, -0.4587169099422821, 21.18888761235451, 58.36970904075026, 81.64015483962017, 62.47533256541259 
127.41268360597634, -0.3816132787791643, 21.1888902462741, 60.17859234975438, 81.26287679923038, 62.47658453881674 
126.48070449790731, -0.2985759245585716, 21.18889254230719, 61.799037467622206, 80.87387148389601, 62.47793148047181 
125.54928451745019, -0.2096302586644711, 21.188894379841155, 63.24934918563387, 80.47466246943412, 62.479372668887876 
124.61845728818575, -0.11480342865364976, 21.188895630451135, 64.54636757308444, 80.06656925586084, 62.48090733330006 
123.6882553284017, -0.014124295782091591, 21.1888961580978, 65.7053947444628, 79.65073432424593, 62.482534654328006 
122.75870999014197, 0.0923765886356223, 21.18889581933692, 66.74021706334638, 79.22814775321349, 62.4842537646761 
121.82985140027344, 0.20466700796965295, 21.18889446354083, 67.66318351087202, 78.79966903211351, 62.48606374987275 
120.90170840364345, 0.3227131060540305, 21.188891933131085, 68.48531371212563, 78.3660460546616, 62.487963649048396 
119.97430850839238, 0.44647941393288193, 21.188888063822297, 69.21641839628447, 77.92793146512662, 62.489952455751016 
119.04767783347855, 0.5759288775027906, 21.18888268487672, 69.86522155476258, 77.4858966178698, 62.49202911879822 
118.12184105846445, 0.7110228859792006, 21.188875619369227, 70.43947795642192, 77.04044344029107, 62.494192543165006 
117.19682137560494, 0.8517213011131838, 21.188866684462358, 70.94608257330343, 76.59201448505516, 62.496441590906095 
116.27264044427031, 0.9979824870839341, 21.188855691691124, 71.39117032313189, 76.14100143610182, 62.49877508211145 
115.34931834772941, 1.1497633409916883, 21.18884244725709, 71.78020568233444, 75.68775230415093, 62.50119179589434 
114.42687355230974, 1.307019323875249, 21.188826752331405, 72.11806240329359, 75.23257751679307, 62.50369047141038 
113.50532286894354, 1.4697044921779578, 21.188808403366416, 72.40909394598236, 74.77575507882462, 62.506269808906616 
112.58468141710267, 1.6377715295861985, 21.18878719241536, 72.65719541781007, 74.31753495170616, 62.50892847079919 
111.66496259111625, 1.8111717791645623, 21.188762907459836, 72.86585788012556, 73.8581427774464, 62.511665082778414 
110.74617802885875, 1.989855275712536, 21.18873533274445, 73.03821587361064, 73.39778305189876, 62.51447823494015 
109.82833758278981, 2.173770778268081, 21.188704249118402, 73.17708896883452, 72.93664183519786, 62.51736648294193 
108.91144929331983, 2.3628658026846505, 21.18866943438344, 73.28501808218574, 72.47488907253718, 62.52032834918246 
107.99551936447013, 2.55708665420914, 21.188630663647647, 73.36429722339453, 72.01268058634257, 62.523362324003564 
107.08055214178971, 2.756378459989765, 21.188587709684867, 73.41700126616199, 71.55015979078081, 62.52646686691264 
106.16655009248687, 2.96068520144427, 21.18854034329895, 73.44501026213715, 71.08745917113863, 62.52964040782458 
105.25351378772682, 3.1699497464206723, 21.18848833369259, 73.45003075276712, 70.62470156363584, 62.53288134832189 
104.34144188704391, 3.3841138810843696, 21.1884314488402, 73.43361447429595, 70.16200126545453, 62.53618806293098 
103.43033112481167, 3.6031183414677397, 21.1883694558643, 73.39717479857924, 69.69946499997019, 62.53955890041396 
102.52017629871033, 3.8269028446201268, 21.18830212141492, 73.34200120616477, 69.2371927581883, 62.54299218507402 
101.61097026012875, 4.055406119298459, 21.1882292120516, 73.2692720477931, 68.77527853408165, 62.54648621807303 
100.70270390643371, 4.288565936141153, 21.188150494627386, 73.18006581552551, 68.31381096876734, 62.55003927876001 
99.7953661750382, 4.526319137270078, 21.188065736674393, 73.07537111451192, 67.85287391616701, 62.553649626009104 
98.88894403919741, 4.768601665268061, 21.18797470679033, 72.95609550038792, 67.39254694087349, 62.55731549956521 
97.9834225054601, 5.015348591481722, 21.187877175025655, 72.82307332489995, 66.93290575734184, 62.5610351213964 
97.07878461270093, 5.266494143602172, 21.187772913270624, 72.67707271310915, 66.47402261817471, 62.56480669705109 
96.17501143266009, 5.521971732478478, 21.18766169564193, 72.51880177898641, 66.01596665813939, 62.56862841701912 
95.27208207191401, 5.781713978121627, 21.18754329886828, 72.34891417199671, 65.55880419959928, 62.572498458094685 
94.36997367520314, 6.0456527348590825, 21.1874175026745, 72.16801403505619, 65.10259902423714, 62.57641498474017 
93.46866143004092, 6.313719115602953, 21.187284090163562, 71.97666044373396, 64.64741261526437, 62.5803761504493 
92.56811857253105, 6.585843515197093, 21.187142848196167, 71.77537138752581, 64.19330437373294, 62.58438009910822 
91.66831639431908, 6.8619556328112, 21.186993567767285, 71.5646273462292, 63.74033181207389, 62.588424966353045 
90.76922425060717, 7.141984493352657, 21.18683604437906, 71.34487450772423, 63.288550727567426, 62.59250888092255 
89.87080956916216, 7.4258584678690465, 21.186670078409936, 71.11652766765434, 62.838015358091845, 62.596629966004684 
88.97303786024887, 7.713505292917186, 21.186495475479077, 70.87997284647574, 62.38877852219149, 62.60078634057565 
88.0758727274233, 8.004852088876598, 21.186312046805924, 70.63556965499221, 61.940891745241835, 62.604976120729816 
87.17927587912259, 8.2998253771881, 21.18611960956425, 70.3836534357158, 61.49440537326354, 62.60919742099977 
86.28320714099205, 8.598351096500123, 21.185917987230354, 70.12453720411573, 61.049368675742656, 62.61344835566468 
85.38762446889181, 8.90035461770817, 21.185707009924812, 69.85851341096341, 60.60582993864642, 62.617727040046105 
84.49248396253044, 9.2057607578745, 21.18548651474741, 69.58585554449749, 60.1638365486788, 62.62203159178974 
83.59773987967448, 9.514493793017898, 21.18525634610484, 69.30681958896236, 59.7234350696939, 62.626360132132 
82.70334465088891, 9.826477469764903, 21.18501635603064, 69.02164535417938, 59.28467131207626, 62.63071078715052 
81.80924889476606, 10.141635015856442, 21.18476640449701, 68.73055768915059, 58.8475903958017, 62.63508168899663 
80.91540143360487, 10.459889149505523, 21.184506359718075, 68.43376759124041, 58.412236807809855, 62.63947097710992 
80.02174930950798, 10.781162087603542, 21.18423609844417, 68.13147322120496, 57.97865445424687, 62.64387679941249 
79.1282378008671, 11.105375552774973, 21.18395550624679, 67.82386083321553, 57.54688670807348, 62.648297313482736 
78.23481043921326, 11.432450779281552, 21.18366447779379, 67.51110562803532, 57.11697645247848, 62.65273068770727 
77.34140902641273, 11.762308517779339, 21.183362917114483, 67.19337253663649, 56.68896612048839, 62.65717510241008 
76.44797365219496, 12.094869038933226, 21.183050737854217, 66.87081694077607, 56.262897731122074, 62.66162875095783 
75.55444271200355, 12.430052135895817, 21.18272786351821, 66.54358533636791, 55.83881292240031, 62.666089840840485 
74.66075292516754, 12.767777125658517, 21.182394227704183, 66.21181594488615, 55.41675298148829, 62.67055659472644 
73.76683935339534, 13.107962849284796, 21.182049774323517, 65.87563927750072, 54.99675887221862, 62.67502725149096 
72.87263541959894, 13.450527671037051, 21.181694457810668, 65.53517865617142, 54.57887126021696, 62.67950006721768 
71.97807292706325, 13.795389476409866, 21.18132824332046, 65.19055069550522, 54.16313053582918, 62.683973316171645 
71.0830820789796, 14.142465669084261, 21.180951106913078, 64.84186574880515, 53.74957683502865, 62.68844529174371 
70.18759149837042, 14.49167316681888, 21.18056303572638, 64.4892283214052, 53.33825005846405, 62.692914307365434 
69.2915282484367, 14.842928396295726, 21.180164028135476, 64.13273745408596, 52.929189888791754, 62.69737869739355 
68.39481785336766, 15.196147286939459, 21.179754093899042, 63.77248707909891, 52.522435806422855, 62.70183681796386 
