# MEX_intpoint_lon [deg], MEX_intpoint_lat [deg], MEX_intpoint_angle [deg], TGO_intpoint_lon [deg], TGO_intpoint_lat [deg], TGO_intpoint_angle [deg] 
-139.2204927900499, 19.56882815922992, 21.707298313584587, -27.501291211126297, 41.71284938471797, 62.88432478954872 
-140.1133709805816, 19.16995283166912, 21.707891895403172, -27.78237121168156, 42.12062083428148, 62.879666551826844 
-141.00462403567857, 18.772192786625578, 21.708473592661488, -28.058458128017502, 42.530959220920906, 62.874973395130574 
-141.8943545661602, 18.3756417224788, 21.70904324249549, -28.329450176383304, 42.94380993567368, 62.8702467936295 
-142.78266357958358, 17.980392678567924, 21.709600696439885, -28.595241495682963, 43.35911787666274, 62.86548826468847 
-143.66965045857347, 17.586538058333108, 21.71014582044323, -28.855721917060546, 43.77682742112085, 62.86069936834205 
-144.55541294024135, 17.194169651456182, 21.71067849486559, -29.110776721154405, 44.196882395172956, 62.85588170671722 
-145.44004709654905, 16.80337865496564, 21.711198614458926, -29.360286382239398, 44.61922604124597, 62.85103692340488 
-146.32364731548338, 16.41425569327242, 21.711706088330143, -29.604126298422504, 45.04380098296556, 62.84616670278034 
-147.20630628291772, 16.02689083710554, 21.71220083988701, -29.84216650700213, 45.47054918738767, 62.8412727692727 
-148.0881149650485, 15.64137362131778, 21.71268280676697, -30.07427138404075, 45.8994119244005, 62.83635688658442 
-148.969162591303, 15.257793061533965, 21.713151940749032, -30.300299327138003, 46.330329723118496, 62.83142085686044 
-149.84953663762448, 14.876237669615561, 21.713608207648896, -30.520102420323997, 46.76324232507597, 62.82646651980807 
-150.7293228100514, 14.496795467916682, 21.714051587197424, -30.7335260799217, 47.19808863401164, 62.821495751767934 
-151.6086050285145, 14.119554002308677, 21.714482072902687, -30.940408680152224, 47.63480666201811, 62.816510464736645 
-152.4874654107862, 13.744600353950933, 21.714899671895825, -31.14058115717806, 48.07333347181166, 62.811512605341626 
-153.36598425652417, 13.372021149787672, 21.715304404760875, -31.333866590196067, 48.5136051148572, 62.8065041537691 
-154.2442400313593, 13.0019025717511, 21.715696305348935, -31.520079758104767, 48.95555656506115, 62.80148712264584 
-155.122309350987, 12.634330364653094, 21.716075420576747, -31.699026670179954, 49.39912164772091, 62.79646355587545 
-156.00026696522832, 12.269389842748442, 21.71644181021019, -31.870504069097173, 49.84423296339364, 62.791435527430174 
-156.87818574203476, 11.907165894954154, 21.716795546632827, -32.03429890454206, 50.290821806318206, 62.78640514009903 
-157.75613665141879, 11.547742988710421, 21.71713671459993, -32.19018777554801, 50.7388180769943, 62.7813745241934 
-158.63418874929837, 11.191205172470308, 21.717465410978306, -32.33793633959729, 51.188150188488144, 62.7763458362108 
-159.51240916125255, 10.837636076806328, 21.71778174447217, -32.47729868641713, 51.638744965999216, 62.77132125745834 
-160.3908630661902, 10.487118914123615, 21.718085835335597, -32.60801667429632, 52.0905275391822, 62.76630299263656 
-161.2696136799424, 10.139736476970752, 21.718377815071893, -32.729819226644686, 52.54342122667646, 62.761293268385316 
-162.14872223879442, 9.795571134940595, 21.71865782612018, -32.84242158641587, 52.99734741224921, 62.756294331792425 
-163.0282479829807, 9.454704830155384, 21.718926021529825, -32.94552452591836, 53.4522254119084, 62.75130844886673 
-163.9082481401717, 9.117219071331512, 21.719182564622912, -33.03881350945211, 53.90797233128839, 62.746337902976826 
-164.78877790898787, 8.783194926421595, 21.719427628645402, -33.12195780613219, 54.36450291255266, 62.74138499325685 
-165.66989044258258, 8.452713013832588, 21.719661396407357, -33.194609550201584, 54.82172936999606, 62.736452032980594 
-166.55163683234014, 8.125853492221266, 21.719884059912665, -33.25640274609804, 55.27956121346155, 62.73154134790579 
-167.43406609174272, 7.802696048869745, 21.720095819978912, -33.306952215530856, 55.7379050586148, 62.72665527458969 
-168.31722514046314, 7.483319886646189, 21.72029688584767, -33.345852483851985, 56.19666442304276, 62.72179615867787 
-169.20115878874728, 7.167803709557801, 21.720487474785944, -33.37267660308119, 56.655739507060375, 62.71696635316764 
-170.08590972215453, 6.856225706905512, 21.720667811679174, -33.38697490907963, 57.11502695802271, 62.7121682166478 
-170.97151848672897, 6.5486635360520795, 21.720838128616354, -33.388273710575184, 57.57441961684734, 62.70740411151665 
-171.8580234746786, 6.245194303818069, 21.720998664467793, -33.376073908043075, 58.033806245355194, 62.70267640217945 
-172.7454609106445, 5.945894546522351, 21.72114966445612, -33.349849540859445, 58.493071232937126, 62.69798745322792 
-173.63386483864622, 5.650840208686579, 21.72129137972113, -33.30904626169847, 58.95209428094885, 62.69333962760287 
-174.52326710979142, 5.3601066204262615, 21.72142406687881, -33.25307973786479, 59.410750063129555, 62.68873528474229 
-175.41369737084395, 5.07376847355316, 21.721547987575555, -33.18133398018182, 59.86890786023192, 62.68417677871643 
-176.30518305374503, 4.791899796417484, 21.72166340803764, -33.09315960123294, 60.326431166943635, 62.67966645635239 
-177.19774936618649, 4.514573927520871, 21.721770598616963, -32.98787200622961, 60.78317726907661, 62.675206655349356 
-178.09141928333682, 4.2418634879344665, 21.721869833333457, -32.86474952161834, 61.238996788904004, 62.67079970238711 
-178.9862135408222, 3.9738403525596326, 21.721961389414748, -32.72303146880634, 61.69373319643894, 62.66644791122971 
-179.88215062906698, 3.710575620271987, 21.722045546833762, -32.56191619316853, 62.14722228438041, 62.662153580826136 
179.22075321090145, 3.4521395829928334, 21.722122587844883, -32.38055906188936, 62.59929160440771, 62.657918993410156 
178.32248399007753, 3.1986016937352897, 21.722192796519078, -32.17807044830446, 63.04975986249268, 62.65374641260148 
177.42302997242692, 2.9500305336759403, 21.722256458278927, -31.95351372536379, 63.498436270932004, 62.64963808151024 
176.5223816740541, 2.7064937783060463, 21.72231385943388, -31.705903296784328, 63.94511985489257, 62.64559622084689 
175.62053186048502, 2.468058162719837, 21.722365286716435, -31.43420270155575, 64.38959871142761, 62.64162302703982 
174.71747554196048, 2.2347894461006557, 21.72241102681997, -31.137322835883914, 64.83164921918359, 62.63772067036245 
173.81320996664044, 2.006752375469193, 21.72245136593861, -30.81412034659737, 65.27103519739866, 62.63389129307238 
172.90773461162016, 1.7840106487611138, 21.72248658930996, -30.463396261701433, 65.70750701332638, 62.63013700756436 
172.00105117166322, 1.5666268773047323, 21.722516980761096, -30.08389493735367, 66.1408006379376, 62.626459894539366 
171.09316354556, 1.3546625477724492, 21.722542822258603, -29.674303416250854, 66.57063665070145, 62.62286200119206 
170.18407782002393, 1.1481779836825772, 21.722564393463074, -29.233251310442594, 66.99671919547282, 62.61934533941852 
169.27380225104386, 0.9472323065311739, 21.722581971288808, -28.759311342055923, 67.41873489107458, 62.615911884046334 
168.362347242615, 0.7518833966361285, 21.722595829469153, -28.251000698387525, 67.83635170212365, 62.61256357108952 
167.44972532277794, 0.5621878537783388, 21.722606238128193, -27.70678338324038, 68.24921777808098, 62.60930229602989 
166.53595111690151, 0.37820095772715273, 21.722613463359206, -27.125073774019683, 68.65696027148311, 62.606129912127216 
165.62104131815204, 0.1999766287393909, 21.722617766810586, -26.50424162348689, 69.05918414992003, 62.60304822876052 
164.70501465509952, 0.027567388123211654, 21.72261940527964, -25.842618775394428, 69.45547102063605, 62.600059009801456 
163.78789185641998, -0.13897568104020108, 21.72261863031494, -25.138507893243897, 69.84537799172499, 62.597163972023196 
162.86969561266048, -0.2996029729228436, 21.722615687827584, -24.390193529315244, 70.22843659981956, 62.59436478354576 
161.95045053504387, -0.45426639762852067, 21.72261081771204, -23.59595588439389, 70.60415184097067, 62.59166306231999 
161.0301831112985, -0.602919419427539, 21.72260425347697, -22.754087623919354, 70.97200134905488, 62.58906037465233 
160.10892165850942, -0.7455170944507334, 21.722596221886572, -21.862914119265433, 71.33143477445694, 62.58655823377182 
159.1866962729964, -0.8820161077457375, 21.72258694261288, -20.92081746815263, 71.68187342477214, 62.58415809844152 
158.26353877723525, -1.0123748095987914, 21.722576627899457, -19.92626460933972, 72.022710238563, 62.58186137161553 
157.3394826638499, -1.1365532510256124, 21.72256548223709, -18.8778397763551, 72.35331017232996, 62.579669399144436 
156.41456303671276, -1.2545132183360004, 21.722553702051627, -17.774281425120392, 72.67301108917295, 62.57758346852926 
155.48881654920214, -1.3662182666779024, 21.722541475404654, -16.614523612898914, 72.98112524426718, 62.57560480772691 
154.56228133967758, -1.4716337524683498, 21.72252898170722, -15.3977415940529, 73.27694146615605, 62.573734584008015 
153.63499696424248, -1.5707268646206842, 21.72251639144709, -14.123401126946547, 73.55972813265772, 62.571973902868386 
152.7070043268774, -1.6634666544798093, 21.72250386592982, -12.791310655468502, 73.82873703438595, 62.57032380699637 
151.77834560703565, -1.7498240643799694, 21.722491557034072, -11.401675143849472, 74.0832082059113, 62.56878527529649 
150.8490641848047, -1.8297719547427305, 21.72247960698138, -9.955149919078192, 74.32237578291118, 62.5673592219711 
149.91920456374694, -1.9032851296361608, 21.72246814812084, -8.452892436253945, 74.54547491204157, 62.56604649566149 
148.98881229154318, -1.9703403607202048, 21.722457302728802, -6.896609465485456, 74.75174969805184, 62.564847878648926 
148.0579338785716, -2.030916409507335, 21.722447182824045, -5.288596852851327, 74.94046212010463, 62.56376408611741 
147.12661671456473, -2.0849940478719846, 21.722437889998446, -3.6317687898809674, 75.11090178783643, 62.56279576547828 
146.1949089834946, -2.132556076747319, 21.722429515263663, -1.929673497005077, 75.26239634037815, 62.56194349575864 
145.2628595768446, -2.1735873429526325, 21.722422138913696, -0.18649244266671464, 75.39432222292508, 62.561207787053256 
144.33051800543385, -2.2080747541004286, 21.72241583040381, 1.5929792781487595, 75.50611551154283, 62.560589080041424 
143.3979343099669, -2.2360072915374896, 21.72241064824578, 3.403372981081362, 75.59728240478266, 62.560087745569305 
142.4651589704863, -2.257376021280397, 21.72240663991969, 5.238807344489539, 75.66740896766142, 62.55970408429807 
141.53224281491168, -2.272174102911699, 21.722403841802382, 7.0929694925490185, 75.71616970615017, 62.5594383264185 
140.59923692685308, -2.280396796409373, 21.722402279112668, 8.959214044182973, 75.74333457306368, 62.559290631432425 
139.66619255288896, -2.2820414668883964, 21.722401965873306, 10.830676623687573, 75.74877406069218, 62.559261088001044 
138.7331610095024, -2.2771075872397004, 21.72240290488992, 12.70039718514389, 75.73246211949642, 62.55934971386084 
137.80019358987087, -2.2655967386583957, 21.722405087746722, 14.56144769529258, 75.69447674969994, 62.559556455806614 
136.8673414707048, -2.247512609059558, 21.722408494819234, 16.407058353206878, 75.63499823440321, 62.55988118974211 
135.93465561933027, -2.2228609893865374, 21.722413095303832, 18.23073664860823, 75.5543051075982, 62.560323720797946 
135.0021867012109, -2.191649767823184, 21.72241884726416, 20.026374157496083, 75.45276806643426, 62.560883783516616 
134.06998498809997, -2.1538889219280213, 21.722425697694284, 21.78833696527192, 75.33084213380702, 62.56156104210461 
133.1381002670135, -2.109590508714542, 21.722433582598633, 23.511536867884733, 75.18905744707203, 62.56235509075105 
132.2065817502085, -2.058768652708361, 21.722442427088456, 25.19148188048832, 75.02800908731238, 62.563265454012615 
131.27547798634808, -2.001439532017787, 21.722452145494756, 26.82430593124884, 74.84834637085561, 62.56429158726395 
130.34483677302848, -1.9376213624605463, 21.72246264149761, 28.406778808636457, 74.65076200380139, 62.56543287721328 
129.41470507083736, -1.867334379794955, 21.722473808271488, 29.93629837471936, 74.43598145686599, 62.5666886424825 
128.48512891910542, -1.790600820109441, 21.72248552864671, 31.41086770906579, 74.20475285892107, 62.568058134250684 
127.55615335350602, -1.7074448984294832, 21.722497675286473, 32.82906020338037, 73.95783764050536, 62.56954053696048 
126.62782232564936, -1.6178927856060046, 21.722510110879465, 34.1899757142945, 73.69600208994416, 62.57113496908646 
125.70017862480844, -1.521972583553986, 21.722522688347745, 35.4931907506419, 73.42000991986814, 62.57284048396401 
124.77326380190549, -1.4197142989142302, 21.722535251069516, 36.73870538191083, 73.13061588465669, 62.57465607067834 
123.84711809587671, -1.311149815215389, 21.722547633116623, 37.92688916644953, 72.82856044184389, 62.57658065501175 
122.92178036252459, -1.1963128636169766, 21.722559659506437, 39.05842796479815, 72.51456541364658, 62.57861310044839 
121.99728800595494, -1.0752389923172334, 21.722571146467676, 40.134273068003566, 72.18933057825166, 62.58075220923504 
121.07367691268645, -0.9479655347128745, 21.722581901720023, 41.15559366377057, 71.85353110335318, 62.58299672349666 
120.15098138850864, -0.8145315764001185, 21.72259172476694, 42.12373330426653, 71.50781572524313, 62.585345326404884 
119.22923409815412, -0.6749779211086788, 21.72260040720147, 43.04017073811596, 71.1528055739549, 62.587796643398555 
118.30846600783939, -0.5293470556621681, 21.72260773302448, 43.90648522794411, 70.78909354697299, 62.59034924345414 
117.38870633071738, -0.37768311405973937, 21.722613478975116, 44.72432629091339, 70.41724413943713, 62.5930016404049 
116.46998247527452, -0.2200318407749883, 21.722617414872794, 45.49538766699629, 70.03779364637273, 62.595752294306685 
115.55231999669383, -0.056440553368675164, 21.72261930397045, 46.221385230599324, 69.65125066129475, 62.59859961284903 
114.63574255119539, 0.1130418954877448, 21.7226189033185, 46.90403850750328, 69.25809680480754, 62.601541952809505 
113.7202718533547, 0.2883651564808874, 21.722615964139116, 47.54505543317387, 68.85878762601276, 62.60457762154959 
112.80592763638991, 0.46947742251982344, 21.722610232210194, 48.14611998337564, 68.45375362827043, 62.60770487855012 
111.89272761539905, 0.6563254679001992, 21.722601448258644, 48.70888231777003, 68.0434013788986, 62.61092193698472 
110.98068745351884, 0.8488546876732191, 21.722589348362327, 49.23495109694362, 67.62811466962197, 62.61422696532856 
110.06982073096827, 1.0470091371256733, 21.72257366436034, 49.725887659267954, 67.20825570094166, 62.6176180890015 
109.16013891693122, 1.2507315712790048, 21.722554124270832, 50.1832017732224, 66.78416626910298, 62.62109339204257 
108.25165134422501, 1.4599634843170473, 21.722530452716036, 50.60834871117019, 66.35616893903426, 62.624650918814424 
107.34436518669382, 1.6746451488541576, 21.722502371353794, 51.00272742055834, 65.92456819057857, 62.628288675735476 
106.4382854392597, 1.894715654957685, 21.722469599315158, 51.3676795970993, 65.48965152862328, 62.63200463303775 
105.53341490055662, 2.120112948841277, 21.7224318536473, 51.70448949106448, 65.05169055042613, 62.63579672654799 
104.62975415806878, 2.350773871147985, 21.722388849761384, 52.014384302031615, 64.61094196562348, 62.63966285949058 
103.72730157568722, 2.586634194745162, 21.722340301884557, 52.29853503914814, 64.16764856615838, 62.64360090430944 
102.82605328359628, 2.827628661955789, 21.722285923515734, 52.558057743205566, 63.72204014475279, 62.647608704507256 
101.92600317039589, 3.0736910211541715, 21.72222542788431, 52.79401498367154, 63.2743343616283, 62.65168407649977 
101.02714287736288, 3.324754062657017, 21.72215852841142, 53.00741755845399, 62.82473756000796, 62.65582481148274 
100.12946179475176, 3.5807496538439763, 21.72208493917301, 53.199226336770465, 62.37344553155292, 62.66002867731005 
99.23294706003277, 3.8416087734453295, 21.722004375364186, 53.37035419626998, 61.92064423334018, 62.66429342038017 
98.33758355796364, 4.107261544937487, 21.721916553764117, 53.52166801471061, 61.46651045830636, 62.668616767529095 
97.44335392238968, 4.377637268990704, 21.721821193201123, 53.653990684231495, 61.011212461292175, 62.67299642792802 
96.55023853966729, 4.652664454916362, 21.721718015017, 53.76810312275757, 60.55491054294881, 62.67743009498291 
95.65821555360428, 4.932270851065033, 21.721606743530295, 53.864746262508085, 60.09775759382609, 62.681915448234534 
94.76726087181227, 5.2163834741293105, 21.72148710649772, 53.94462300009701, 59.639899600972576, 62.68645015525663 
93.877348173366, 5.504928637309398, 21.721358835573145, 54.00840009644998, 59.18147611934714, 62.69103187355 
92.98844891766653, 5.7978319773019775, 21.72122166676371, 54.0567100178366, 58.7226207102851, 62.695658252430945 
92.10053235440641, 6.095018480076754, 21.72107534088218, 54.090152711830605, 58.263461349183736, 62.700326934911466 
91.21356553453718, 6.396412505407874, 21.72091960399522, 54.1092973140544, 57.80412080447987, 62.70503555956986 
90.32751332214235, 6.701937810130474, 21.72075420786685, 54.11468378321335, 57.344716989892305, 62.70978176240923 
89.44233840712117, 7.01151757009594, 21.72057891039658, 54.10682446324527, 56.885363291795166, 62.71456317870242 
88.5580013185925, 7.325074400801933, 21.720393476051544, 54.08620557245712, 56.42616887348087, 62.71937744482118 
87.6744604389309, 7.642530376676511, 21.72019767629219, 54.053288620341036, 55.96723895796331, 62.72422220004784 
86.79167201835136, 7.963807048997982, 21.719991289990926, 54.008511753394785, 55.508675090866134, 62.729095088367956 
85.90959018996304, 8.288825462435145, 21.71977410384309, 53.95229103175161, 55.05057538483753, 62.73399376024151 
85.0281669852167, 8.617506170194766, 21.71954591276983, 53.8850216387788, 54.59303474683497, 62.738915874351505 
84.14735234967513, 8.949769247765763, 21.719306520312273, 53.807079026056336, 54.13614508952759, 62.74385909932822 
83.26709415904095, 9.285534305251895, 21.71905573901654, 53.718819996317016, 53.67999552797549, 62.74882111544716 
82.3873382353812, 9.624720498286653, 21.71879339080899, 53.62058372703239, 53.224672562659784, 62.7537996162991 
81.5080283634929, 9.967246537526815, 21.71851930736128, 53.512692737379794, 52.77026024985802, 62.75879231043148 
80.6291063073603, 10.313030696722265, 21.718233330444804, 53.39545380133387, 52.31684036028547, 62.76379692295828 
79.75051182665909, 10.661990819362419, 21.71793531227383, 53.269158809602565, 51.86449252685272, 62.768811197138156 
78.87218269326974, 11.014044323900787, 21.71762511583723, 53.13408558307786, 51.4132943823257, 62.773832895918595 
77.99405470776702, 11.36910820756142, 21.7173026152179, 52.99049864040373, 50.963321687613885, 62.77885980344523 
77.11606171586057, 11.727099048732157, 21.716967695899932, 52.83864992218154, 50.5146484513568, 62.78388972653488 
76.23813562476566, 12.087933007951696, 21.716620255062697, 52.67877947424076, 50.06734704142693, 62.78892049611059 
75.36020641949212, 12.451525827498418, 21.716260201861786, 52.511116092304334, 49.62148828891973, 62.79394996859842 
74.48220217904411, 12.817792829590939, 21.715887457696095, 52.33587793027496, 49.17714158515672, 62.79897602728366 
73.60404909253164, 13.186648913211199, 21.715501956461083, 52.153273074263566, 48.73437497218709, 62.80399658362656 
72.72567147520111, 13.558008549562611, 21.715103644787412, 51.96350008437646, 48.293255227235704, 62.80900957853542 
71.84699178439956, 13.931785776176964, 21.714692482265054, 51.76674850617269, 47.853847941509976, 62.81401298359676 
70.96793063549487, 14.307894189684864, 21.714268441652234, 51.56319935360128, 47.416217593747, 62.819004802261425 
70.08840681778126, 14.686246937266215, 21.71383150906909, 51.3530255651282, 46.980427618851806, 62.82398307098572 
69.20833731040796, 15.066756706797811, 21.71338168417576, 51.13639243466621, 46.546540471951076, 62.82894586032654 
