# MEX_intpoint_lon [deg], MEX_intpoint_lat [deg], MEX_intpoint_angle [deg], TGO_intpoint_lon [deg], TGO_intpoint_lat [deg], TGO_intpoint_angle [deg] 
-138.77670195946723, 19.461564971276378, 21.40792944205811, -27.725902890980418, 45.2954691455258, 62.80833358778519 
-139.679300172012, 19.07894474757121, 21.40848788365436, -28.0674114110115, 45.68829447954708, 62.80384103586028 
-140.580279333034, 18.69735098958163, 21.40903553383727, -28.40492980036707, 46.08382492332304, 62.79932012646753 
-141.47973530896633, 18.316875750129004, 21.409572238786236, -28.738376605187806, 46.482015736903, 62.7947722748638 
-142.37776256554721, 17.937610434320277, 21.41009785775339, -29.067666885237816, 46.882821916706966, 62.79019893157866 
-143.27445414039425, 17.55964581871491, 21.410612263078974, -29.39271199723295, 47.28619818126861, 62.78560158191825 
-144.16990161688017, 17.183072069673045, 21.411115340190946, -29.71341936487481, 47.692098955515476, 62.7809817454267 
-145.06419509917555, 16.807978760846478, 21.411606987588915, -30.029692234600752, 48.10047835349583, 62.776340975305125 
-145.95742318833595, 16.434454889775864, 21.412087116812252, -30.34142941597674, 48.511290159454155, 62.77168085778862 
-146.84967295931636, 16.0625888935602, 21.412555652392744, -30.648525005567894, 48.9244878071472, 62.76700301148162 
-147.74102993880845, 15.692468663565975, 21.413012531791633, -30.950868093022223, 49.34002435728365, 62.76230908665159 
-148.63157808380194, 15.324181559146004, 21.413457705321292, -31.24834244799285, 49.75785247295843, 62.757600764482056 
-149.5213997607812, 14.957814420339085, 21.413891136051724, -31.54082618640519, 50.1779243929414, 62.7528797562847 
-150.4105757254765, 14.593453579523656, 21.414312799701868, -31.82819141444389, 50.60019190266623, 62.74814780267159 
-151.29918510309602, 14.23118487200046, 21.414722684516054, -32.11030384849141, 51.024606302750755, 62.743406672687705 
-152.18730536897516, 13.871093645480055, 21.415120791125677, -32.38702240909265, 51.45111837486379, 62.73865816290463 
-153.0750123295842, 13.513264768453567, 21.41550713239639, -32.658198786847656, 51.879678344735034, 62.73390409647554 
-153.96238010384562, 13.157782637425575, 21.415881733260996, -32.92367697794573, 52.31023584208528, 62.729146322152914 
-154.8494811047178, 12.804731182990228, 21.416244630538266, -33.18329278684639, 52.74273985723141, 62.72438671326877 
-155.73638602101036, 12.454193874732628, 21.416595872737975, -33.436873293385, 53.17713869409662, 62.719627166679096 
-156.6231637994019, 12.106253724939307, 21.416935519852423, -33.6842362813308, 53.61337991932869, 62.71486960167248 
-157.50988162663953, 11.760993291102723, 21.41726364313474, -33.925189625150125, 54.051410307199696, 62.710115958844305 
-158.39660491190418, 11.41849467720656, 21.41758032486427, -34.159530631425085, 54.491175779925705, 62.70536819893718 
-159.2833972693341, 11.078839533779606, 21.417885658099348, -34.38704533104667, 54.93262134300952, 62.70062830164865 
-160.17032050070395, 10.74210905670795, 21.418179746417866, -34.607507717934986, 55.375691015166176, 62.69589826440702 
-161.0574345782632, 10.408383984796423, 21.418462703645865, -34.82067892963858, 55.820327752345975, 62.69118010111642 
-161.94479762774523, 10.077744596071893, 21.41873465357473, -35.02630636472286, 56.26647336531813, 62.686475840872184 
-162.83246591156077, 9.750270702822782, 21.41899572966707, -35.22412273137175, 56.71406843021973, 62.68178752664746 
-163.72049381219992, 9.426041645370573, 21.419246074752003, -35.413845021093266, 57.16305219141216, 62.67711721395263 
-164.6089338158675, 9.105136284571127, 21.41948584070998, -35.595173400833, 57.613362455913474, 62.67246696946817 
-165.497836496386, 8.787632993045102, 21.419715188147777, -35.76779001615486, 58.06493547859695, 62.667838869652485 
-166.38725049940274, 8.473609645138998, 21.419934286063956, -35.93135769744122, 58.51770583725467, 62.66323499932598 
-167.27722252694429, 8.163143605619883, 21.420143311505267, -36.085518560288996, 58.971606296525415, 62.658657450232795 
-168.16779732236571, 7.856311717109312, 21.420342449214523, -36.22989249042852, 59.4265676595731, 62.65410831958092 
-169.05901765574657, 7.553190286263674, 21.42053189127032, -36.36407550256293, 59.8825186062755, 62.6495897085629 
-169.95092430979003, 7.253855068710553, 21.4207118367191, -36.48763796151112, 60.33938551654123, 62.645103720858074 
-170.84355606628648, 6.958381252752905, 21.420882491200107, -36.6001226529328, 60.79709227721353, 62.64065246111766 
-171.7369496932049, 6.666843441855262, 21.42104406656366, -36.70104268971426, 61.25556007084065, 62.63623803343448 
-172.63113993248166, 6.37931563592841, 21.421196780483236, -36.789879238795294, 61.71470714439071, 62.63186253979876 
-173.52615948857766, 6.095871211431502, 21.421340856061992, -36.866079051819305, 62.17444855576381, 62.627528078541275 
-174.42203901787843, 5.816582900313423, 21.42147652143404, -36.92905178149017, 62.6346958956987, 62.62323674276574 
-175.31880711901601, 5.541522767817243, 21.42160400936126, -36.97816706392657, 63.09535698238632, 62.618990618771775 
-176.21649032419123, 5.270762189174939, 21.421723556825903, -37.012751345624196, 63.55633552578014, 62.614791784470185 
-177.11511309158016, 5.00437182522187, 21.421835404619774, -37.032084431886396, 64.01753075823277, 62.61064230779212 
-178.01469779890812, 4.742421596963369, 21.421939796930324, -37.03539573178873, 64.47883702768196, 62.606544245093794 
-178.9152647382776, 4.484980659128778, 21.42203698092434, -37.021860172939654, 64.94014334915445, 62.602499639558324 
-179.8168321123367, 4.232117372751052, 21.422127206329726, -36.990593757543714, 65.40133290984545, 62.598510519596836 
179.28058396812492, 3.9838992768129335, 21.4222107250159, -36.94064872963966, 65.86228252246163, 62.5945788972495 
178.37696948506277, 3.7403930590035834, 21.422287790573396, -36.87100832197986, 66.32286202087867, 62.59070676658947 
177.47231251246185, 3.5016645256326964, 21.422358657893202, -36.78058104998273, 66.7829335914561, 62.58689610213076 
176.56660321392866, 3.2677785707517173, 21.422423582746415, -36.668194519717524, 67.2423510325669, 62.58314885724143 
175.65983383850667, 3.0387991445349996, 21.422482821364714, -36.53258871723019, 67.70095893403433, 62.579466962565014 
174.75199871462922, 2.81478922097634, 21.422536630022215, -36.37240874802885, 68.15859176721882, 62.57585232445035 
173.84309424212748, 2.595810764959428, 21.422585264619386, -36.18619699866733, 68.61507287546691, 62.572306823393255 
172.93311888221308, 2.3819246987632154, 21.42262898026925, -35.97238469767922, 69.07021335352546, 62.568832312490265 
172.02207314535752, 2.1731908680662153, 21.422668030886825, -35.7292828613875, 69.52381080334803, 62.56543061590712 
171.10995957699492, 1.96966800751603, 21.422702668782033, -35.45507262232719, 69.97564795249859, 62.562103527363504 
170.19678274097674, 1.7714137059331823, 21.42273314425674, -35.14779495543653, 70.4254911201218, 62.558852808635564 
169.28254920071362, 1.5784843712204768, 21.422759705206403, -34.80533984140801, 70.87308851424915, 62.55568018807834 
168.36726749794266, 1.390935195051576, 21.422782596726982, -34.4254349396851, 71.31816834312258, 62.5525873591692 
167.45094812906464, 1.2088201174142563, 21.422802060727403, -34.0056338881067, 71.76043672234997, 62.54957597907475 
166.53360351900108, 1.0321917910860507, 21.4228183355483, -33.54330440532007, 72.1995753592086, 62.546647667242105 
165.6152479925273, 0.861101546121476, 21.422831655587412, -33.03561644970333, 72.63523899550077, 62.54380400401676 
164.69589774304475, 0.6955993544316345, 21.42284225093218, -32.47953078936311, 73.06705259132274, 62.541046529288565 
163.77557079876223, 0.5357337945382826, 21.422850347, -31.871788467340092, 73.4946082343239, 62.53837674116704 
162.85428698626353, 0.38155201658561533, 21.422856164186634, -31.20890181081356, 73.91746176302436, 62.53579609468819 
161.9320678914469, 0.2330997076935563, 21.422859917523184, -30.487147839791035, 74.33512909918936, 62.533306000553885 
161.0089368178291, 0.09042105773729896, 21.42286181634223, -29.70256518662106, 74.7470822939962, 62.53090782390581 
160.08491874221684, -0.046441274362160626, 21.422862063953332, -28.850955949109878, 75.1527453068446, 62.52860288313467 
159.16004026775497, -0.177446193751651, 21.422860857328544, -27.927894271379678, 75.5514895554788, 62.52639244872727 
158.2343295743715, -0.3025542020790526, 21.422858386798268, -26.928743877782118, 75.94262930316216, 62.524277742151746 
157.3078163666473, -0.42172742916213235, 21.4228548357578, -25.8486872681803, 76.3254169847287, 62.52225993478287 
156.38053181914864, -0.5349296638098843, 21.422850380385086, -24.682769796861315, 76.69903862025865, 62.520340146868854 
155.45250851926866, -0.6421263837145393, 21.422845189369905, -23.425962361735852, 77.06260952457298, 62.51851944654058 
154.5237804076343, -0.7432847843338408, 21.422839423654963, -22.073246856726715, 77.41517059384071, 62.51679884886467 
153.59438271614374, -0.8383738066850487, 21.42283323618919, -20.619728782083783, 77.7556855373005, 62.51517931494172 
152.66435190370913, -0.9273641639743024, 21.42282677169355, -19.060781311926675, 78.08303952026762, 62.51366175105036 
151.73372558978767, -1.0102283669874081, 21.422820166439685, -17.39222448131541, 78.39603978876683, 62.512247007838816 
150.80254248579334, -1.0869407481708757, 21.422813548041745, -15.610541726033958, 78.69341894605847, 62.510935879564435 
149.87084232449092, -1.157477484335169, 21.422807035261556, -13.713133513959392, 78.97384163049887, 62.50972910338263 
148.93866578748003, -1.2218166179153926, 21.422800737827547, -11.69860400435791, 79.23591537883188, 62.5086273586856 
148.00605443088807, -1.2799380767283826, 21.422794756267464, -9.567071438083623, 79.47820641836273, 62.50763126649219 
147.07305060939493, -1.3318236921690376, 21.422789181755352, -7.320486424302163, 79.69926098037773, 62.50674138888933 
146.13969739872277, -1.377457215792934, 21.422784095972766, -4.962934974977721, 79.8976324322916, 62.50595822852585 
145.20603851672777, -1.4168243342366194, 21.42277957098454, -2.5008961006031396, 80.07191406614844, 62.50528222815933 
144.27211824323933, -1.4499126824317587, 21.422775669129233, 0.05658137592670322, 80.22077676109579, 62.50471377025652 
143.33798133879586, -1.4767118550739373, 21.42277244292442, 2.6978194243479994, 80.34301000236395, 62.50425317664807 
142.4036729624318, -1.4972134163121928, 21.42276993498688, 5.40860098298845, 80.43756398319606, 62.5039007082374 
141.46923858867532, -1.5114109076303117, 21.42276817796793, 8.172430427217256, 80.50358987800348, 62.50365656476501 
140.53472392391785, -1.5192998538964064, 21.42276719450383, 10.970967006181985, 80.54047501547326, 62.50352088462758 
139.60017482232197, -1.520877767562634, 21.42276699718142, 13.784611567038667, 80.54786974041897, 62.50349374475281 
138.66563720143333, -1.5161441510024751, 21.42276758851902, 16.593204348024745, 80.52570330441037, 62.503575160529664 
137.73115695766637, -1.505100496978522, 21.42276896096261, 19.376773913769735, 80.47418713089934, 62.50376508579464 
136.79677988183207, -1.4877502872394213, 21.422771096897304, 22.116268797243386, 80.3938051076851, 62.5040634128733 
135.8625515748768, -1.4640989892501655, 21.422773968674083, 24.794206314123173, 80.28529193164422, 62.504469972677974 
134.92851736400021, -1.4341540510655073, 21.42277753865173, 27.3951865655079, 80.14960171263121, 62.5049845348607 
133.99472221931848, -1.3979248943619242, 21.42278175925405, 29.906240393233734, 79.98786983406146, 62.50560680802135 
133.0612106712365, -1.3554229056489169, 21.42278657304206, 32.317003101593734, 79.80137137053107, 62.50633643997162 
132.12802672868972, -1.3066614256859228, 21.422791912801298, 34.61972637535183, 79.59147919865717, 62.50717301805266 
131.19521379841257, -1.251655737136249, 21.422797701643947, 36.80915572132488, 79.35962441846122, 62.50811606950802 
130.2628146053855, -1.1904230504946747, 21.422803853125778, 38.882308650049445, 79.10726098598282, 62.509165061909826 
129.33087111460821, -1.1229824883301949, 21.422810271377646, 40.83819019882741, 78.83583569736122, 62.510319403638626 
128.3994244543399, -1.0493550678902237, 21.42281685125143, 42.677478914906665, 78.54676397846998, 62.51157844441584 
127.468514840942, -0.9695636821169696, 21.422823478480236, 44.4022100892285, 78.24141139144443, 62.51294147588817 
126.53818150545163, -0.8836330791311673, 21.422830029852584, 46.015475687677196, 77.92108039344613, 62.51440773226347 
125.60846262200657, -0.7915898402422189, 21.42283637340036, 47.52115340433275, 77.58700166372485, 62.51597639099693 
124.6793952382348, -0.693462356547779, 21.422842368600424, 48.92367133855867, 77.24032922364447, 62.51764657352707 
123.75101520771389, -0.589280804189112, 21.422847866589354, 50.22781028296553, 76.88213857556354, 62.5194173460602 
122.82335712459707, -0.47907711833192435, 21.422852710391254, 51.438542486319406, 76.51342714681238, 62.52128772040287 
121.89645426049323, -0.3628849659453157, 21.422856735158295, 52.56090382764912, 76.13511641706302, 62.523256654840715 
120.9703385036804, -0.2407397174539222, 21.422859768423475, 53.59989533831766, 75.74805521107628, 62.52532305506307 
120.04504030072253, -0.11267841734085277, 21.42286163036562, 54.56040967132283, 75.35302374092522, 62.52748577513192 
119.12058860054995, 0.02126024621914964, 21.42286213408587, 55.44717821258262, 74.950738074676, 62.529743618494 
118.19701080105517, 0.16103597261509697, 21.422861085895654, 56.26473487901324, 74.5418547885224, 62.53209533903504 
117.27433269824618, 0.3066068808612743, 21.42285828561548, 57.01739312422684, 74.1269756255583, 62.53453964217446 
116.35257843799015, 0.457929542381143, 21.422853526884335, 57.709233188449744, 73.7066520373695, 62.53707518599962 
115.4317704703712, 0.6149590144295441, 21.422846597479236, 58.3440971313936, 73.2813895259031, 62.53970058243756 
114.51192950667762, 0.7776488740682221, 21.42283727964441, 58.92558964556623, 72.85165173442324, 62.54241439846393 
113.59307447902373, 0.945951252610071, 21.422825350429864, 59.457083049184384, 72.41786425959754, 62.54521515734633 
112.67522250260487, 1.119816870447052, 21.42281058203871, 59.941725198919585, 71.98041817354559, 62.54810133992144 
111.75838884057431, 1.2991950721777745, 21.422792742182907, 60.382449345641014, 71.53967325645725, 62.55107138590408 
110.84258687152305, 1.484033861950991, 21.422771594446875, 60.78198518672012, 71.09596094835139, 62.554123695226934 
109.92782805953692, 1.6742799389423475, 21.422746898658573, 61.1428705532446, 70.64958703366264, 62.557256629408656 
109.01412192679659, 1.869878732882971, 21.422718411267507, 61.46746331676532, 70.20083407537255, 62.56046851294966 
108.10147602868074, 2.0707744395598287, 21.42268588572918, 61.75795321464939, 69.7499636169337, 62.563757634753 
107.18989593132467, 2.276910056209372, 21.42264907289542, 62.01637338169544, 69.29721817071486, 62.56712224956975 
106.2793851915824, 2.4882274167279084, 21.422607721410262, 62.244611443501086, 68.84282301146037, 62.57056057946598 
105.36994533933279, 2.7046672266241014, 21.4225615781106, 62.44442007844926, 68.3869877925515, 62.5740708153106 
104.4615758620669, 2.9261690976409716, 21.422510388431267, 62.61742699362902, 67.92990800186405, 62.577651118282056 
103.55427419168792, 3.1526715819775366, 21.42245389681402, 62.76514428838634, 67.47176627286144, 62.58129962139181 
102.64803569345185, 3.384112206042081, 21.422391847119666, 62.88897719980033, 67.01273356533721, 62.58501443102337 
101.7428536569726, 3.62042750367206, 21.422323983043167, 62.99023223901858, 66.55297022898682, 62.58879362848499 
100.83871928921272, 3.8615530487581027, 21.422250048530746, 63.07012473748757, 66.09262696178597, 62.59263527157412 
99.93562170937798, 4.1074234872122695, 21.42216978819888, 63.12978582880057, 65.63184567400926, 62.59653739615172 
99.03354794563184, 4.357972568223646, 21.422082947754223, 63.17026889601828, 65.17076026765103, 62.6004980177256 
98.13248293354447, 4.613133174747052, 21.42198927441421, 63.19255551656927, 64.70949734002075, 62.60451513303974 
97.2324095161892, 4.8728373531737805, 21.42188851732769, 63.197560937717675, 64.24817681937733, 62.6085867216687 
96.33330844579909, 5.137016342135771, 21.42178042799491, 63.18613911548735, 63.786912539642884, 62.612710747615616 
95.43515838689535, 5.405600600398129, 21.421664760686603, 63.159087349150546, 63.32581276048912, 62.61688516091082 
94.53793592080044, 5.67851983379718, 21.421541272861237, 63.117150542148316, 62.86498063841884, 62.62110789921109 
93.64161555144766, 5.955703021184801, 21.421409725580215, 63.0610251187739, 62.40451465386152, 62.62537688939621 
92.74616971240171, 6.237078439342047, 21.421269883920328, 62.9913626242454, 61.94450899876267, 62.62969004916248 
91.85156877500465, 6.522573686828484, 21.421121517382915, 62.908773034005385, 61.48505392866477, 62.634045288610594 
90.957781057564, 6.812115706736119, 21.420964400299177, 62.813827796280876, 61.026236082847454, 62.638440511826715 
90.06477283550174, 7.105630808319646, 21.420798312231312, 62.70706263016106, 60.56813877571231, 62.64287361845505 
89.17250835238502, 7.403044687477633, 21.420623038368557, 62.58898009973175, 60.11084226225601, 62.64734250526024 
88.28094983176261, 7.704282446061575, 21.420438369918017, 62.46005198316835, 59.6544239801732, 62.65184506767797 
87.39005748973332, 8.009268609992759, 21.42024410448954, 62.320721454142, 59.198958770860145, 62.65637920135271 
86.499789548177, 8.317927146168914, 21.420040046474146, 62.17140509144521, 58.74451908135057, 62.660942803660184 
85.61010224858089, 8.630181478145644, 21.419826007415622, 62.01249473139486, 58.2911751490019, 62.66553377521399 
84.72094986639952, 8.945954500579301, 21.419601806374644, 61.84435917632217, 57.83899517056015, 62.670150021354324 
83.83228472588873, 9.265168592420999, 21.419367270285058, 61.66734577130692, 57.388045457062795, 62.6747894536178 
82.94405721536019, 9.587745628853066, 21.419122234301806, 61.4817818602546, 56.93839057588883, 62.67944999118654 
82.05621580280616, 9.913606991961625, 21.418866542140044, 61.28797613144413, 56.490093481131204, 62.68412956231554 
81.16870705184951, 10.242673580141265, 21.41860004640496, 61.08621986178461, 56.04321563334714, 62.688826105736986 
80.28147563797897, 10.574865816229094, 21.41832260891194, 60.87678806820795, 55.597817109635976, 62.6935375720398 
79.39446436503412, 10.910103654368244, 21.41803410099656, 60.659940573883496, 55.15395670489861, 62.698261925023836 
78.5076141819108, 11.248306585601899, 21.417734403814027, 60.43592299626535, 54.71169202504825, 62.702997143026934 
77.62086419946203, 11.589393642201316, 21.417423408627734, 60.20496766336813, 54.27107957286586, 62.70774122022419 
76.73415170757615, 11.933283400732574, 21.41710101708637, 59.96729446410776, 53.8321748271263, 62.71249216789768 
75.84741219241862, 12.279893983868813, 21.41676714148944, 59.72311163803374, 53.39503231556019, 62.71724801567629 
74.96057935383111, 12.629143060955931, 21.41642170504057, 59.47261650931773, 52.95970568216213, 62.722006812743956 
74.07358512288639, 12.98094784734158, 21.41606464208853, 59.21599616944023, 52.526247749307316, 62.72676662901587 
73.1863596796043, 13.335225102478727, 21.415695898355377, 58.953428112636026, 52.094710575094375, 62.73152555628119 
72.29883147084105, 13.691891126816339, 21.415315431151615, 58.6850808278094, 51.66514550629366, 62.73628170931166 
71.41092722836936, 14.050861757491562, 21.41492320957796, 58.41111435031424, 51.23760322724388, 62.7410332269353 
70.52257198717513, 14.412052362838766, 21.4145192147134, 58.131680776705316, 50.81213380500925, 62.745778273074166 
69.63368910400186, 14.775377835732833, 21.414103439789404, 57.846924745305294, 50.38878673107976, 62.7505150377454 
68.74420027618262, 15.140752585784732, 21.41367589034991, 57.55698388519287, 49.96761095987188, 62.75524173802499 
