# MEX_intpoint_lon [deg], MEX_intpoint_lat [deg], MEX_intpoint_angle [deg], TGO_intpoint_lon [deg], TGO_intpoint_lat [deg], TGO_intpoint_angle [deg] 
-138.98720376866018, 19.51309161014983, 21.548570441982452, -27.638892978276633, 43.62063034363627, 62.84358178944824 
-139.88527205944712, 19.122773602395252, 21.549145381658793, -27.950445081979932, 44.02106681958199, 62.83899575246326 
-140.78171708442247, 18.733523650507305, 21.549709021060803, -28.257493907927763, 44.4241526843051, 62.83437828654711 
-141.6766379064276, 18.345434621037263, 21.550261202115607, -28.559946585468534, 44.829838629806204, 62.82973083940661 
-142.57013209291742, 17.958598726611843, 21.550801780440352, -28.857706381341426, 45.238074976068525, 62.825054897736614 
-143.4622956911048, 17.57310754696898, 21.551330625357455, -29.15067247015232, 45.64881165009798, 62.82035198670847 
-144.35322320431652, 17.189052049090314, 21.551847619893362, -29.438739691545667, 46.06199816309571, 62.81562366941177 
-145.24300756942034, 16.806522606393557, 21.552352660760743, -29.721798293145305, 46.477583585649114, 62.81087154624959 
-146.1317401351952, 16.425609016949323, 21.55284565832437, -29.999733658265182, 46.89551652081845, 62.80609725428738 
-147.01951064152456, 16.0464005206898, 21.553326536550543, -30.272426017312853, 47.31574507498452, 62.80130246655597 
-147.9064071993033, 15.668985815577912, 21.553795232940388, -30.53975014172502, 47.73821682631194, 62.79648889130879 
-148.79251627095758, 15.293453072707893, 21.554251698446954, -30.801575019182764, 48.16287879066889, 62.79165827123393 
-149.67792265148591, 14.91988995030975, 21.55469589737644, -31.057763508756164, 48.58967738483058, 62.78681238262149 
-150.5627094499393, 14.548383606631454, 21.555127807273493, -31.308171974521134, 49.01855838677821, 62.78195303448674 
-151.44695807126485, 14.179020711674799, 21.555547418791033, -31.552649896076723, 49.44946689288771, 62.77708206764932 
-152.33074819844848, 13.811887457761676, 21.55595473554454, -31.79103945426624, 49.88234727178467, 62.77220135376969 
-153.2141577748977, 13.447069568909619, 21.556349773951155, -32.02317509027119, 50.31714311462065, 62.7673127943428 
-154.0972629870152, 13.084652308996247, 21.556732563053888, -32.24888303610205, 50.7537971815044, 62.762418319650564 
-154.9801382469202, 12.724720488694112, 21.557103144331037, -32.46798081435237, 51.19225134379614, 62.75751988767275 
-155.8628561752843, 12.367358471158449, 21.55746157149115, -32.68027670491396, 51.63244652194671, 62.75261948295824 
-156.74548758425206, 12.012650176451952, 21.557807910253928, -32.88556917616763, 52.07432261853287, 62.74771911545668 
-157.62810146042887, 11.660679084691873, 21.558142238117195, -33.08364627796784, 52.517818446108, 62.74282081931208 
-158.51076494792008, 11.311528237906167, 21.5584646441104, -33.27428499352704, 52.962871649451095, 62.737926651618565 
-159.39354333141694, 10.965280240586877, 21.55877522853489, -33.45725054707848, 53.40941862175718, 62.73303869114011 
-160.27650001932815, 10.622017258930326, 21.559074102691373, -33.632295663951425, 53.857394414269216, 62.728159036994676 
-161.15969652696438, 10.281821018755155, 21.55936138859496, -33.79915977943128, 54.30673263880278, 62.72328980730423 
-162.04319245978832, 9.94477280209079, 21.55963721867806, -33.9575681924977, 54.75736536256263, 62.7184331378114 
-162.92704549674937, 9.610953442430574, 21.559901735481674, -34.10723116023553, 55.209222994591414, 62.71359118046461 
-163.8113113737281, 9.280443318645274, 21.560155091335403, -34.24784292839704, 55.66223416312688, 62.708766101972095 
-164.69604386712123, 8.953322347554645, 21.560397448026603, -34.379080693259965, 56.11632558307296, 62.70396008232678 
-165.58129477760363, 8.629669975156252, 21.56062897645921, -34.50060348957278, 56.57142191271244, 62.699175313303044 
-166.46711391410946, 8.309565166512886, 21.560849856302568, -34.61205099901104, 57.02744559870244, 62.69441399692666 
-167.35354907807957, 7.993086394301553, 21.561060275630837, -34.71304227318567, 57.48431670829994, 62.68967834391957 
-168.24064604802737, 7.68031162602947, 21.56126043055338, -34.80317436485104, 57.94195274765975, 62.6849705721207 
-169.12844856448052, 7.371318309924213, 21.561450524836673, -34.882020860560225, 58.40026846493313, 62.68029290488444 
-170.0169983153607, 7.066183359507624, 21.561630769518228, -34.949130307615256, 58.85917563676858, 62.67564756945843 
-170.90633492186683, 6.76498313686528, 21.561801382512947, -35.00402452776798, 59.318582836678566, 62.67103679534188 
-171.79649592493334, 6.467793434625902, 21.56196258821261, -35.04619680975412, 59.77839518358237, 62.6664628126262 
-172.68751677233715, 6.17468945666733, 21.562114617078816, -35.07510997240499, 60.23851406867035, 62.661927850319955 
-173.57943080653195, 5.885745797568298, 21.562257705230117, -35.09019428979417, 60.69883685855111, 62.65743413465909 
-174.47226925329122, 5.6010364208282395, 21.562392094023668, -35.09084526966829, 61.159256572444626, 62.65298388740462 
-175.36606121124444, 5.320634635879484, 21.56251802963216, -35.07642127630909, 61.61966153096778, 62.64857932412948 
-176.26083364239406, 5.044613073919644, 21.562635762616413, -35.04624098902092, 62.07993497382383, 62.64422265249605 
-177.15661136370284, 4.773043662594465, 21.562745547494327, -34.99958068768035, 62.53995464345309, 62.639916070526496 
-178.0534170398435, 4.505997599564484, 21.562847642306643, -34.9356713572885, 62.99959233143014, 62.63566176486729 
-178.95127117720435, 4.243545324991845, 21.56294230818019, -34.85369560430612, 63.45871338410095, 62.631461909050245 
-179.85019211924495, 3.985756492986735, 21.56302980888906, -34.75278437882828, 63.91717616364543, 62.62731866175144 
179.2498039567013, 3.7326999420558846, 21.56311041041444, -34.63201349848658, 64.37483146042732, 62.623234165050214 
178.34870304108287, 3.4844436645986265, 21.56318438050357, -34.4903999725044, 64.83152185215926, 62.619210542690034 
177.44649329214718, 3.241054775499467, 21.5632519882284, -34.32689812775801, 65.28708100507065, 62.615249898343095 
176.54316503422388, 3.002599479868748, 21.563313503544624, -34.14039554323765, 65.7413329119296, 62.611354313880476 
175.6387107541797, 2.769143039986589, 21.563369196851543, -33.929708805235954, 66.19409106144683, 62.60752584765012 
174.73312509595172, 2.5407497415080207, 21.563419338553473, -33.69357910324662, 66.64515753329806, 62.603766532764055 
173.826404853068, 2.3174828589904974, 21.563464198623098, -33.43066769633896, 67.09432201275966, 62.60007837539721 
172.91854895906673, 2.0994046208078325, 21.56350404616751, -33.139551292163404, 67.54136071879262, 62.59646335309945 
172.0095584757286, 1.886576173517605, 21.56353914899743, -32.81871739631024, 67.9860352393654, 62.59292341312304 
171.09943657904017, 1.679057545751914, 21.56356977320015, -32.46655970915926, 68.4280912679297, 62.5894604707673 
170.1881885428102, 1.476907611703938, 21.563596182716793, -32.081373671395006, 68.86725723531245, 62.586076407742105 
169.27582171986523, 1.2801840542855984, 21.563618638924478, -31.661352288905785, 69.30324283194624, 62.58277307055283 
168.36234552075723, 1.0889433280338674, 21.563637400223843, -31.204582403815767, 69.73573741642423, 62.57955226890792 
167.44777138991927, 0.9032406218456613, 21.563652721632582, -30.70904162198075, 70.16440830796459, 62.57641577415132 
166.53211277921378, 0.723129821623277, 21.563664854385443, -30.172596159506877, 70.58889896265076, 62.573365317721596 
165.61538511882327, 0.5486634729144438, 21.56367404554124, -29.592999932786753, 71.00882703647011, 62.57040258963941 
164.6976057854406, 0.37989274363245923, 21.563680537597435, -28.9678952890899, 71.42378234242477, 62.567529237025646 
163.77879406772402, 0.2168673869436562, 21.563684568112727, -28.294815858452626, 71.83332471459542, 62.56474686265107 
162.85897112898974, 0.05963570441047971, 21.563686369338207, -27.571192102441398, 72.23698179930567, 62.562057023520396 
161.93815996712308, -0.09175549052058671, 21.563686167857544, -26.79436024028762, 72.63424680278588, 62.55946122949166 
161.0163853716986, -0.23726090859617496, 21.56368418423666, -25.96157534540269, 73.02457623632658, 62.5569609419327 
160.09367387830778, -0.3768368203080229, 21.56368063268335, -25.070029520733808, 73.40738771418054, 62.55455757241702 
159.17005372010354, -0.5104410908292509, 21.56367572071739, -24.116876172207807, 73.78205787671973, 62.552252481459725 
158.24555477657864, -0.6380332142448255, 21.563669648851377, -23.09926149411565, 74.14792053176137, 62.550046977295814 
157.32020851960658, -0.7595743469864595, 21.563662610282954, -22.014364342241315, 74.50426513053863, 62.54794231470201 
156.39404795678257, -0.8750273403832216, 21.56365479059865, -20.859445677445855, 74.85033572117275, 62.54593969386387 
155.4671075721123, -0.9843567722403498, 21.563646367489813, -19.631908685309725, 75.18533055090143, 62.54404025928897 
154.5394232641066, -1.0875289773601629, 21.56363751048094, -18.329370480829148, 75.50840251726396, 62.5422450987686 
153.61103228134962, -1.184512076921175, 21.56362838067092, -16.94974595038992, 75.81866069561003, 62.540555242388145 
152.6819731556187, -1.275276006633413, 21.563619130487268, -15.491343723802167, 76.115173192298, 62.538971661588306 
151.75228563264363, -1.3597925435908265, 21.563609903453997, -13.952973468867851, 76.39697158522847, 62.53749526827777 
150.82201060060243, -1.4380353317444579, 21.563600833973126, -12.334062635440523, 76.66305721020385, 62.536126913998714 
149.89119001646043, -1.5099799059233203, 21.563592047120345, -10.634779447971132, 76.91240952642441, 62.53486738914627 
148.95986683026854, -1.5756037143335173, 21.563583658455013, -8.856157400873665, 77.1439967403786, 62.5337174222428 
148.02808490754484, -1.6348861394700622, 21.563575773844672, -7.000214854678557, 77.35678877843675, 62.53267767926798 
147.09588894987223, -1.6878085173799726, 21.5635684893045, -5.070061739010578, 77.54977257097786, 62.53174876304549 
146.1633244138527, -1.7343541552197546, 21.563561890851716, -3.069984089287995, 77.72196944552383, 62.53093121268741 
145.23043742856535, -1.7745083470550496, 21.563556054375255, -1.0054964810167093, 77.87245423003905, 62.53022550309647 
144.29727471168255, -1.8082583878552485, 21.563551045520782, 1.1166473045392349, 78.00037545491115, 62.529632044527396 
143.36388348440454, -1.8355935856410432, 21.563546919591385, 3.2884935826491977, 78.10497583578014, 62.52915118220747 
142.43031138537773, -1.856505271748291, 21.563543721463823, 5.500983442115484, 78.18561204831232, 62.52878319601723 
141.49660638376648, -1.8709868091771353, 21.563541485520688, 7.744104171198893, 78.24177270167422, 62.52852830023113 
140.56281669165256, -1.8790335990010363, 21.563540235598342, 10.0070938825027, 78.27309340785473, 62.528386643319166 
139.62899067593887, -1.8806430848162106, 21.5635399849509, 12.278690570657686, 78.27936794682805, 62.5283583078094 
138.6951767699371, -1.8758147552179945, 21.5635407362302, 14.547412094044114, 78.2605547443028, 62.528443310211166 
137.76142338481864, -1.864550144296469, 21.563542481481754, 16.80185008342487, 78.21677819163041, 62.52864160100004 
136.82777882111208, -1.8468528301498983, 21.563545202156813, 19.030959162063578, 78.14832471060173, 62.5289530646637 
135.89429118042557, -1.8227284314205308, 21.563548869140416, 21.224323409900094, 78.05563385172564, 62.529377519808826 
134.96100827757664, -1.7921846018632819, 21.56355344279537, 23.372384617626825, 77.93928506297594, 62.52991471932933 
134.02797755330582, -1.7552310229638468, 21.56355887302228, 25.46662108348066, 77.79998103422089, 62.53056435063517 
133.09524598775002, -1.7118793946286903, 21.56356509933534, 27.499670785718514, 77.63852868334854, 62.53132603594158 
132.16286001484815, -1.6621434239751125, 21.563572050953816, 29.465397922142518, 77.45581889540534, 62.53219933261875 
131.23086543784603, -1.6060388122552283, 21.563579646909325, 31.358906346749844, 77.25280606607421, 62.53318373360071 
130.2993073460639, -1.5435832399532603, 21.563587796168424, 33.176506872719166, 77.03048835923887, 62.53427866785376 
129.36823003308356, -1.474796350100771, 21.5635963977706, 34.91564753635808, 76.78988939577651, 62.535483500903155 
128.4376769165066, -1.3996997298595097, 21.563605340981407, 36.57481675846335, 76.53204187793602, 62.536797535417584 
127.5076904594266, -1.3183168904266018, 21.563614505460457, 38.1534291048733, 76.25797344683835, 62.53822001185114 
126.57831209375324, -1.230673245321104, 21.563623761444248, 39.65170233687162, 75.96869488847706, 62.53975010914092 
125.64958214551585, -1.136796087115569, 21.56363296994334, 41.07053297142035, 75.66519065674952, 62.541386945460566 
124.7215397622669, -1.0367145626801102, 21.563641982953786, 42.41137592036428, 75.34841157406935, 62.54312957902776 
123.79422284269698, -0.9304596470102648, 21.563650643682518, 43.67613215985583, 75.01926949925466, 62.54497700896527 
122.86766796856239, -0.8180641157134185, 21.563658786786302, 44.86704693587073, 74.67863371360652, 62.54692817621425 
121.94191033901922, -0.699562516231479, 21.56366623862404, 45.98661981230901, 74.32732876278298, 62.54898196449842 
121.01698370744539, -0.5749911378805321, 21.563672817522068, 47.03752693696105, 73.96613349741668, 62.55113720133842 
120.09292032082469, -0.4443879807903104, 21.563678334052025, 48.022555224918946, 73.59578107320667, 62.553392659114344 
119.1697508617549, -0.30779272382862854, 21.563682591321037, 48.94454770613338, 73.2169596962941, 62.55574705617585 
118.24750439313338, -0.16524669159763916, 21.563685385273704, 49.80635901243141, 72.83031392813871, 62.55819905799781 
117.32620830556267, -0.016792820589929945, 21.563686505005688, 50.61081984726357, 72.43644639301955, 62.56074727838061 
116.40588826750911, 0.13752437540604326, 21.563685733088224, 51.36070925038991, 72.03591975880836, 62.56339028069298 
115.48656817823722, 0.2976588405614053, 21.56368284590333, 52.05873350734446, 71.62925888670352, 62.566126579156425 
114.56827012353322, 0.4635630128327506, 21.56367761398925, 52.70751063420424, 71.21695306761512, 62.56895464016934 
113.65101433422123, 0.6351878602680361, 21.563669802395506, 53.30955947260978, 70.79945828170517, 62.571872883669144 
112.73481914746704, 0.8124829177022593, 21.56365917104738, 53.86729254427441, 70.37719943331393, 62.574879684530806 
111.81970097085478, 0.995396323753324, 21.563645475119053, 54.383011928946445, 69.95057252639195, 62.577973374000265 
110.90567424921343, 1.1838748580292116, 21.563628465415064, 54.85890753893443, 69.51994675593421, 62.581152241160716 
109.99275143416226, 1.3778639784586564, 21.56360788875963, 55.29705726339028, 69.08566649913021, 62.58441453442999 
109.08094295633596, 1.5773078586590548, 21.563583488393174, 55.6994285448702, 68.64805319633919, 62.58775846308763 
108.1702572002435, 1.782149425256618, 21.563555004375615, 56.06788102877918, 68.20740711689565, 62.59118219882915 
107.26070048170705, 1.992330395075951, 21.563522173995924, 56.404169993447134, 67.76400900842219, 62.594683877346384 
106.35227702782181, 2.2077913121178825, 21.563484732187337, 56.70995032554108, 67.31812163102096, 62.59826159993153 
105.44498895937086, 2.4284715842469438, 21.563442411947733, 56.986780853285445, 66.86999117963327, 62.60191343510298 
104.53883627562463, 2.65430951951188, 21.56339494476458, 57.23612888963291, 66.4198485991717, 62.60563742025164 
103.63381684144854, 2.8852423620255396, 21.563342061043908, 57.459374870186586, 65.96791079787552, 62.60943156330499 
102.72992637663927, 3.1212063273327484, 21.56328349054282, 57.65781699734782, 65.51438176483434, 62.61329384440774 
101.82715844740585, 3.362136637197737, 21.563218962804775, 57.83267582378672, 65.05945359785166, 62.61722221761646 
100.92550445990751, 3.607967553745701, 21.563148207597347, 57.98509872573328, 64.60330744785294, 62.62121461260692 
100.02495365575948, 3.8586324128956733, 21.563070955351627, 58.11616423048804, 64.1461143859354, 62.62526893639172 
99.12549310941364, 4.114063657025318, 21.562986937602865, 58.226886173571934, 63.688036198951956, 62.62938307504637 
98.22710772732079, 4.374192866810953, 21.562895887431687, 58.318217669599186, 63.229226119252004, 62.633554895442316 
97.32978024877882, 4.638950792189566, 21.562797539905354, 58.39105488770538, 62.76982949389215, 62.63778224698422 
96.43349124837147, 4.9082673823923635, 21.562691632518472, 58.44624062756291, 62.30998439829867, 62.64206296335055 
95.53821913990106, 5.182071815002901, 21.562577905632505, 58.4845676959686, 61.84982219902307, 62.64639486423455 
94.64394018171987, 5.460292523995472, 21.562456102913686, 58.50678208694571, 61.38946806989581, 62.65077575708474 
93.75062848336414, 5.742857226713191, 21.56232597176857, 58.513585970466075, 60.92904146555177, 62.65520343884221 
92.8582560133973, 6.029692949747532, 21.56218726377672, 58.50564049643521, 60.46865655598669, 62.65967569767351 
91.96679260836915, 6.320726053684712, 21.562039735120052, 58.48356842162793, 60.008422625502746, 62.6641903146969 
91.07620598280025, 6.615882256687062, 21.561883147008103, 58.44795656792268, 59.54844443911946, 62.66874506570038 
90.18646174010317, 6.915086656880192, 21.56171726609886, 58.399358120547554, 59.088822579263535, 62.67333772284971 
89.29752338435421, 7.218263753520231, 21.561541864914343, 58.33829477518825, 58.62965375530583, 62.677966056384484 
88.40935233283273, 7.525337466917401, 21.561356722250753, 58.26525874277605, 58.171031088289006, 62.68262783630099 
87.52190792924807, 7.8362311570957175, 21.561161623582205, 58.18071462061339, 57.713044372980875, 62.68732083401941 
86.63514745757792, 8.150867641170352, 21.560956361457997, 58.08510113824474, 57.25578031919852, 62.692042824034765 
85.74902615644524, 8.469169209427701, 21.560740735892416, 57.97883278616404, 56.79932277417317, 62.696791585548844 
84.86349723396579, 8.791057640094547, 21.560514554746945, 57.862301335093065, 56.3437529275675, 62.70156490408237 
83.97851188300166, 9.116454212786168, 21.560277634104203, 57.73587725318063, 55.889149500610564, 62.70636057306556 
83.09401929676133, 9.445279720624576, 21.560029798633046, 57.599911028075475, 55.43558892068457, 62.71117639540549 
82.20996668469199, 9.77745448102081, 21.559770881944555, 57.454734400424755, 54.98314548257649, 62.716010185028885 
81.32629928861321, 10.112898345117147, 21.559500726938225, 57.30066151495245, 54.53189149749831, 62.72085976839899 
80.4429603990486, 10.451530705886853, 21.55921918613808, 57.13798999488415, 54.081897430881156, 62.72572298600483 
79.55989137171512, 10.793270504891566, 21.558926122018114, 56.967001945108244, 53.633232029856934, 62.730597693822084 
78.67703164413716, 11.13803623769745, 21.558621407316675, 56.787964889103655, 53.18596244126075, 62.73548176474358 
77.79431875235673, 11.485745957953856, 21.558304925339478, 56.60113264432042, 52.740154320911884, 62.740373089978426 
76.91168834771847, 11.836317280139161, 21.557976570250645, 56.40674614037397, 52.295871934864614, 62.745269580419055 
76.02907421371255, 12.189667380980698, 21.557636247351493, 56.20503418410694, 51.853178253258065, 62.7501691679741 
75.14640828286649, 12.545712999556718, 21.557283873346755, 55.99621417528351, 51.4121350373397, 62.75506980686669 
74.26362065368224, 12.904370436090256, 21.556919376597683, 55.780492776410775, 50.97280292018593, 62.75996947489687 
73.38063960762136, 13.265555549445907, 21.55654269736188, 55.55806653992863, 50.53524148159763, 62.76486617466686 
72.49739162614884, 13.629183753342165, 21.55615378801941, 55.329122495774044, 50.099509317607485, 62.76975793476877 
71.6138014078517, 13.995170011293256, 21.555752613284895, 55.093838702105344, 49.66566410499714, 62.77464281093312 
70.72979188565674, 14.363428830295723, 21.555339150405352, 54.85238476176877, 49.233762661188905, 62.77951888713793 
69.84528424417805, 14.733874253276573, 21.55491338934341, 54.60492230689904, 48.803860999844964, 62.78438427667711 
