# MEX_intpoint_lon [deg], MEX_intpoint_lat [deg], MEX_intpoint_angle [deg], TGO_intpoint_lon [deg], TGO_intpoint_lat [deg], TGO_intpoint_angle [deg] 
-137.93381129613712, 19.247234257711042, 20.873320708051708, -27.133157858702376, 51.36500923071837, 62.68573697538624 
-138.8530088423187, 18.894894926234038, 20.873816684104, -27.617230218122444, 51.716601296254744, 62.68184850942127 
-139.7706251700799, 18.543426761995185, 20.874303723743022, -28.100012491632963, 52.07087715076646, 62.677942692724734 
-140.6867436266459, 18.19291803742555, 20.874781689354187, -28.581501159385883, 52.42780505643113, 62.67402074165997 
-141.60144650652614, 17.84345641454108, 20.875250454144997, -29.06169259828125, 52.78735326031033, 62.670083894447004 
-142.51481501658847, 17.49512895709402, 20.875709902160782, -29.54058305365218, 53.14948999824358, 62.66613341074753 
-143.42692924263233, 17.148022142204205, 20.87615992828737, -30.01816860930653, 53.51418349857997, 62.66217057122324 
-144.3378681173543, 16.802221871429225, 20.87660043824078, -30.494445155790334, 53.88140198574789, 62.65819667706733 
-145.24770938960583, 16.457813481234588, 20.87703134854379, -30.96940835672524, 54.2511136836638, 62.65421304950972 
-146.15652959484873, 16.114881752826996, 20.877452586489692, -31.44305361305593, 54.623286818980574, 62.650221029296006 
-147.06440402672078, 15.77351092131604, 20.87786409009318, -31.915376025027445, 54.99788962417647, 62.64622197614042 
-147.97140670962986, 15.433784684171778, 20.87826580802843, -32.386370351692676, 55.37489034048516, 62.64221726815339 
-148.87761037230126, 15.095786208947189, 20.878657699554594, -32.85603096772949, 55.75425722066766, 62.63820830124352 
-149.78308642220895, 14.759598140236653, 20.87903973442883, -33.324351817323596, 56.135958531626805, 62.63419648849484 
-150.68790492082718, 14.425302605843491, 20.879411892806868, -33.79132636484664, 56.51996255686455, 62.6301832595193 
-151.59213455964576, 14.092981222130808, 20.87977416513146, -34.25694754202976, 56.90623759878299, 62.62617005978531 
-152.49584263689715, 13.762715098532414, 20.880126552008786, -34.72120769129963, 57.29475198082874, 62.62215834992247 
-153.3990950349499, 13.434584841201366, 20.88046906407293, -35.184098504907716, 57.68547404948144, 62.61814960500297 
-154.30195619832824, 13.108670555776149, 20.88080172183889, -35.64561095944017, 58.07837217608572, 62.61414531380058 
-155.20448911232413, 12.78505184924546, 20.88112455554394, -36.10573524525109, 58.47341475852671, 62.61014697802708 
-156.10675528217197, 12.463807830894696, 20.881437604978, -36.56446069030662, 58.87057022274819, 62.60615611154741 
-157.00881471276338, 12.145017112318424, 20.88174091930295, -37.02177567786949, 59.26980702411268, 62.60217423957347 
-157.91072588888287, 11.828757806485083, 20.88203455686121, -37.47766755738415, 59.67109364860179, 62.598202897837766 
-158.81254575595247, 11.51510752584141, 20.882318584973955, -37.932122547847136, 60.07439861385545, 62.59424363174711 
-159.71432970127617, 11.204143379446055, 20.882593079729233, -38.38512563285906, 60.479690470047494, 62.59029799551732 
-160.6161315357816, 10.895941969123252, 20.882858125760052, -38.836660446455234, 60.8869378005947, 62.586367551289484 
-161.51800347626067, 10.590579384628981, 20.88311381601309, -39.286709148699394, 61.296109222695925, 62.5824538682285 
-162.41999612811526, 10.28813119782413, 20.88336025150809, -39.73525228989373, 61.70717338769675, 62.57855852160486 
-163.32215846861868, 9.988672455850361, 20.88359754108838, -40.18226866211156, 62.12009898127469, 62.57468309186006 
-164.22453783070867, 9.69227767330651, 20.88382580116279, -40.62773513658715, 62.534854723438436, 62.570829163656825 
-165.12717988733053, 9.399020823424838, 20.884045155439388, -41.07162648530237, 62.95140936833384, 62.56699832491463 
-166.03012863635462, 9.108975328248535, 20.88425573465135, -41.5139151848826, 63.36973170384774, 62.563192165831936 
-166.9334263860953, 8.822214047813398, 20.88445767627533, -41.95457120065439, 63.789790550999136, 62.55941227789499 
-167.83711374146245, 8.538809268338747, 20.88465112424272, -42.39356174841398, 64.21155476310567, 62.55566025287521 
-168.7412295907803, 8.258832689434499, 20.884836228644204, -42.830851031105084, 64.63499322471056, 62.55193768181533 
-169.64581109331178, 7.982355410333083, 20.88501314542797, -43.26639994719571, 65.06007485025349, 62.54824615400555 
-170.55089366752944, 7.709447915157209, 20.885182036091976, -43.70016576706675, 65.48676858246537, 62.54458725595034 
-171.4565109801772, 7.440180057236357, 20.885343067370755, -44.13210177316646, 65.91504339046377, 62.54096257032729 
-172.3626949361699, 7.174621042486938, 20.885496410917014, -44.56215685903102, 66.34486826752156, 62.53737367493856 
-173.26947566938026, 6.91283941187311, 20.885642242978694, -44.99027508149982, 66.7762122284774, 62.53382214165639 
-174.1768815343646, 6.654903022967808, 20.885780744071653, -45.416395159544436, 67.20904430674963, 62.53030953536295 
-175.0849390990818, 6.400879030635014, 20.885912098648586, -45.84044991205357, 67.64333355091038, 62.52683741288657 
-175.99367313865991, 6.150833866857269, 20.886036494764593, -46.262365625635766, 68.0790490207674, 62.523407321934364 
-176.90310663026884, 5.904833219734082, 20.886154123739757, -46.68206134197707, 68.51615978289253, 62.52002080002293 
-177.81326074915646, 5.662942011679458, 20.886265179819247, -47.09944805246621, 68.95463490552477, 62.51667937340815 
-178.72415486590742, 5.425224376848876, 20.886369859831397, -47.51442778561002, 69.39444345276195, 62.51338455601481 
-179.63580654498494, 5.191743637828447, 20.886468362844166, -47.92689257012245, 69.83555447793945, 62.51013784836738 
179.45176845538495, 4.9625622816211195, 20.88656088982051, -48.33672325337862, 70.2779370160748, 62.50694073652297 
178.5385561819257, 4.737741934967116, 20.886647643272994, -48.7437881510471, 70.72156007523336, 62.50379469100771 
177.62454448356053, 4.517343339038055, 20.886728826918212, -49.14794149898183, 71.1663926266414, 62.50070116575721 
176.7097230071399, 4.301426323546307, 20.886804645331488, -49.549021672658334, 71.61240359333812, 62.49766159706256 
175.79408319158986, 4.090049780313534, 20.886875303602153, -49.94684913229914, 72.05956183711373, 62.49467740252318 
174.87761826042313, 3.8832716363442104, 20.88694100699005, -50.341224043001056, 72.50783614342815, 62.49174998000676 
173.9603232125586, 3.6811488264522607, 20.887001960583575, -50.73192350819166, 72.95719520393668, 62.48888070661832 
173.0421948113958, 3.4837372654907623, 20.887058368959774, -51.118698341005036, 73.40760759616688, 62.48607093767897 
172.12323157209414, 3.291091820236812, 20.887110435846928, -51.5012692808914, 73.85904175978449, 62.48332200571556 
171.20343374700883, 3.10326628098528, 20.887158363790082, -51.87932254091884, 74.31146596875325, 62.48063521946224 
170.28280330923891, 2.920313332907109, 20.88720235381988, -52.25250454339921, 74.76484829852512, 62.47801186287523 
169.3613439342458, 2.742284527229388, 20.887242605125337, -52.62041566580521, 75.21915658717845, 62.47545319416161 
168.43906097950537, 2.569230252296035, 20.8872793147307, -52.982602772914795, 75.67435838914218, 62.47296044482307 
167.5159614621598, 2.401199704569161, 20.8873126771771, -53.33855025126068, 76.13042091977907, 62.47053481871638 
166.59205403464043, 2.2382408596327106, 20.88734288420919, -53.68766918351209, 76.58731098862152, 62.46817749113041 
165.6673489582374, 2.080400443260844, 20.887370124467342, -54.02928419672894, 77.04499491842222, 62.46588960788203 
164.74185807459688, 1.9277239026145585, 20.88739458318578, -54.36261738016363, 77.50343844633588, 62.46367228443086 
163.8155947751321, 1.7802553776309942, 20.887416441896875, -54.68676848215068, 77.96260660241234, 62.461526605014356 
162.88857396833978, 1.638037672670192, 20.887435878142302, -55.00069034249238, 78.42246355903255, 62.459453621804144 
161.96081204501976, 1.5011122284846432, 20.887453065191135, -55.30315816874514, 78.88297244279048, 62.45745435408431 
161.03232684140053, 1.3695190945772304, 20.88746817176549, -55.59273078077253, 79.34409509735863, 62.45552978745305 
160.10313760018133, 1.2432969020130853, 20.887481361773883, -55.86770126618966, 79.80579178169656, 62.453680873047915 
159.17326492950593, 1.1224828367507214, 20.887492794052832, -56.12603351605561, 80.26802078198853, 62.45190852679616 
158.2427307598912, 1.0071126135573651, 20.887502622116898, -56.36527970023896, 80.7307379070337, 62.45021362869061 
157.3115582991387, 0.8972204505728646, 20.887510993917573, -56.58247166668363, 81.19389582404366, 62.44859702209205 
156.37977198526565, 0.7928390445856338, 20.887518051611323, -56.77397614116496, 81.65744317264975, 62.447059513059074 
155.44739743749685, 0.6939995470829773, 20.887523931337107, -56.935298861595435, 82.12132336564045, 62.4456018697057 
154.51446140536677, 0.6007315411369443, 20.887528763003576, -57.060815391716034, 82.5854729392241, 62.44422482158811 
153.58099171598718, 0.5130630191852344, 20.887532670086422, -57.14339457974654, 83.04981924253438, 62.44292905912057 
152.6470172195419, 0.4310203617649779, 20.887535769435868, -57.17386136847094, 83.51427713624594, 62.44171523302194 
151.71256773307758, 0.35462831725521554, 20.887538171094857, -57.14021327422389, 83.97874416786486, 62.440583953792434 
150.77767398266448, 0.2839099826816937, 20.887539978127975, -57.026448635387396, 84.4430933385407, 62.439535791222504 
149.84236754400823, 0.21888678563520844, 20.88754128646136, -56.810763625992756, 84.90716193834257, 62.43857127393305 
148.9066807815988, 0.15957846735212963, 20.887542184733896, -56.46268571897052, 85.37073372407264, 62.43769088894868 
147.9706467864887, 0.10600306700284964, 20.88754275415984, -55.938340141031354, 85.83350933394931, 62.436895081303625 
147.03429931279766, 0.05817690723104848, 20.887543068402966, -55.172278818532874, 86.29505485560196, 62.43618425368148 
146.0976727130461, 0.016114580983209836, 20.887543193462673, -54.062616619898655, 86.75470734806385, 62.43555876608852 
145.16080187242412, -0.020171060335057795, 20.887543187571804, -52.4422507067531, 87.21138929965784, 62.43501893556157 
144.2237221421066, -0.05066891734343824, 20.887543101106683, -50.01881282468035, 87.66321304119806, 62.43456503591042 
143.28646927173014, -0.07536965178270363, 20.88754297650928, -46.23787914802319, 88.10654658347259, 62.43419729749508 
142.3490793411491, -0.09426569419661471, 20.887542848221653, -39.94050015614539, 88.53351127920892, 62.433915907038475 
141.41158869159193, -0.10735125017845303, 20.887542742632785, -28.460579152936962, 88.92426931222624, 62.43372100747428 
140.4740338563419, -0.11462230516465055, 20.887542678037853, -5.983713278989163, 89.2220331357251, 62.43361269783058 
139.53645149106686, -0.11607662776201585, 20.88754266461001, 30.125374221416497, 89.29655644599515, 62.43359103314916 
138.59887830392523, -0.11171377159927595, 20.887542704384654, 60.33168578436837, 89.09114089982589, 62.433656024440594 
137.66135098557587, -0.10153507569760876, 20.887542791256337, 76.36452029909452, 88.73559223145683, 62.433807638675326 
136.7239061392201, -0.08554366335923046, 20.887542910988156, 84.7623614031178, 88.32287477138934, 62.43404579881063 
135.78658021080358, -0.06374443957710339, 20.887543041233712, 89.59420085359002, 87.88628477809077, 62.43437038385324 
134.8494094195059, -0.036144086973072524, 20.887543151571613, 92.60132288534325, 87.43807719441257, 62.43478122895809 
133.91242968864327, -0.002751060275844003, 20.88754320355243, 94.57494939084596, 86.98351162585973, 62.43527812556255 
132.97567657710974, 0.03642442064564424, 20.887543150758052, 95.91321930897959, 86.52517220327219, 62.435860821556 
132.0391852114785, 0.08137037917404032, 20.887542938873395, 96.83518652587517, 86.06447036907744, 62.43652902148514 
131.10299021888343, 0.1320730917370755, 20.887542505770345, 97.47039301226512, 85.60224419576372, 62.43728238679409 
130.16712566079707, 0.18851709897546623, 20.8875417816038, 97.90002001257528, 85.13902623407911, 62.43812053609919 
129.23162496781808, 0.250685218254343, 20.88754068891975, 98.1773956131545, 84.67517469850863, 62.439043045498565 
128.2965208755774, 0.3185585574836012, 20.887539142775168, 98.33893702554015, 84.21094265108265, 62.440049448915715 
127.36184536186701, 0.39211653020917914, 20.887537050869653, 98.41033251989761, 83.74651676544063, 62.441139238476495 
126.42762958509198, 0.47133687193413387, 20.887534313688537, 98.41020625220388, 83.28204016811023, 62.44231186491985 
125.49390382413942, 0.556195657625097, 20.887530824657357, 98.3523817048355, 82.81762648094006, 62.44356673804097 
124.5606974197544, 0.6466673203569681, 20.88752647030746, 98.24732966247139, 82.35336877258341, 62.44490322716694 
123.62803871750612, 0.7427246710458124, 20.887521130452487, 98.10312319955347, 81.88934544590222, 62.446320661663854 
122.69595501242145, 0.8443389192175977, 20.88751467837557, 97.92608454757082, 81.42562421706938, 62.44781833147543 
121.76447249535839, 0.9514796947579502, 20.88750698102693, 97.72123367441603, 80.9622648701127, 62.44939548769167 
120.8336162011833, 1.0641150705861142, 20.887497899231636, 97.49260591504994, 80.49932120466286, 62.451051343147796 
119.90340995881142, 1.1822115861944025, 20.887487287907305, 97.24348110984039, 80.03684243954932, 62.45278507305205 
118.97387634316273, 1.305734271992787, 20.887474996291335, 96.97655169527307, 79.57487424161906, 62.454595815642136 
118.04503662907833, 1.4346466743968633, 20.887460868177495, 96.69404789020633, 79.1134594915246, 62.45648267286912 
117.1169107472364, 1.5689108815962036, 20.887444742161478, 96.39783221714967, 78.65263886173682, 62.45844471110848 
116.18951724210031, 1.7084875499392143, 20.887426451895145, 96.08947176850313, 78.19245125841603, 62.460480961897055 
115.26287323192398, 1.8533359308697774, 20.88740582634908, 95.77029409394082, 77.73293416317215, 62.46259042269536 
114.33699437083432, 2.0034138983505745, 20.88738269008314, 95.44143087813315, 77.27412390024996, 62.46477205767425 
113.4118948130028, 2.158677976707498, 20.88735686352462, 95.10385240880358, 76.81605584749553, 62.46702479852508 
112.48758717891353, 2.319083368829713, 20.887328163253663, 94.75839502197925, 76.35876460447297, 62.46934754529251 
111.56408252372769, 2.484583984659736, 20.887296402295647, 94.40578313778126, 75.90228412758704, 62.471739167228925 
110.64139030773887, 2.655132469908602, 20.887261390419916, 94.04664709029564, 75.44664783955767, 62.47419850366951 
109.71951836890887, 2.8306802349312967, 20.88722293444475, 93.68153765868354, 74.99188871878043, 62.47672436492732 
108.79847289746637, 3.0111774836986744, 20.88718083854799, 93.31093798990717, 74.53803937278138, 62.479315533206616 
107.87825841254785, 3.196573242802681, 20.887134904582872, 92.93527344322253, 74.0851320989966, 62.48197076353456 
106.95887774085327, 3.3868153904329534, 20.887084932398935, 92.55491976699165, 73.6331989353755, 62.48468878470898 
106.0403319972859, 3.581850685263876, 20.887030720167147, 92.17020992827517, 73.18227170275907, 62.48746830026241 
105.12262056754057, 3.7816247951926627, 20.88697206470926, 91.78143984720799, 72.73238204056445, 62.4903079894403 
104.20574109260099, 3.9860823258703446, 20.88690876183059, 91.38887323572003, 72.28356143698973, 62.493206508193175 
103.2896894551031, 4.195166848969346, 20.88684060665608, 90.99274569968264, 71.83584125470443, 62.4961624901809 
102.37445976751809, 4.408820930132811, 20.886767393968977, 90.59326823208598, 71.3892527528004, 62.499174547788826 
101.46004436210595, 4.6269861565527615, 20.886688918551847, 90.19063020021072, 70.94382710562753, 62.502241273154 
100.54643378258741, 4.849603164126222, 20.88660497552935, 89.78500191034107, 70.49959541902004, 62.50536123920066 
99.63361677748075, 5.076611664140012, 20.886515360712377, 89.37653681817257, 70.05658874432604, 62.50853300068413 
98.72158029504675, 5.3079504694374435, 20.88641987094315, 88.96537344079202, 69.61483809057788, 62.51175509524134 
97.81030947978516, 5.543557520021872, 20.886318304440728, 88.55163701626275, 69.174374435081, 62.51502604444804 
96.89978767042312, 5.783369908054562, 20.88621046114652, 88.13544094891327, 68.7352287326508, 62.51834435488019 
95.98999639933697, 6.027323902206061, 20.886096143069334, 87.71688807199742, 68.29743192368772, 62.521708519179654 
95.08091539334659, 6.275354971323105, 20.885975154629584, 87.2960717541595, 67.8610149412491, 62.525117017122305 
94.17252257582264, 6.527397807374731, 20.88584730300202, 86.87307687185749, 67.4260087172501, 62.52856831668817 
93.26479407004649, 6.783386347643989, 20.8857123984567, 86.44798066637969, 66.99244418790472, 62.53206087513157 
92.35770420376329, 7.043253796133592, 20.88557025469774, 86.02085350119002, 66.56035229850028, 62.53559314005124 
91.45122551486956, 7.306932644156364, 20.885420689199247, 85.59175953293362, 66.1297640075838, 62.5391635504587 
90.54532875817726, 7.574354690083455, 20.88526352353816, 85.16075730743674, 65.70071029062717, 62.54277053784402 
89.6399829131984, 7.84545105822545, 20.885098583723508, 84.72790029036787, 65.27322214322712, 62.54641252723776 
88.73515519289529, 8.120152216824065, 20.88492570052157, 84.29323734082982, 64.84733058388787, 62.55008793826863 
87.83081105334372, 8.39838799513384, 20.88474470977664, 83.85681313497979, 64.42306665642745, 62.553795186214934 
86.92691420425814, 8.68008759957592, 20.884555452726797, 83.4186685457839, 64.00046143204177, 62.55753268304965 
86.02342662033121, 8.965179628947567, 20.88435777631452, 82.97884098417664, 63.57954601105646, 62.561298838477796 
85.12030855334132, 9.253592088673903, 20.884151533491426, 82.53736470618445, 63.16035152439139, 62.565092060964844 
84.21751854498623, 9.54525240408953, 20.88393658351697, 82.09427108996897, 62.74290913475946, 62.56891075875594 
83.31501344040221, 9.840087432740615, 20.883712792250574, 81.64958888622968, 62.3272500376179, 62.572753340884084 
82.41274840233294, 10.138023475699292, 20.88348003243689, 81.20334444496369, 61.91340546188782, 62.57661821816726 
81.51067692591519, 10.43898628788456, 20.88323818398368, 80.75556192120271, 61.50140667045531, 62.5805038041929 
80.60875085405141, 10.74290108738573, 20.882987134232067, 80.30626346202037, 61.09128496046526, 62.5844085162893 
79.7069203933445, 11.04969256378605, 20.882726778218817, 79.85546937682312, 60.6830716634178, 62.588330776482614 
78.80513413057272, 11.359284885486499, 20.88245701893006, 79.40319829269411, 60.276798145075205, 62.592269012439395 
77.90333904968776, 11.671601706030774, 20.88217776754644, 78.94946729635006, 59.87249580518629, 62.59622165839283 
77.00148054932254, 11.986566169435108, 20.881888943679122, 78.49429206408726, 59.47019607703384, 62.60018715605294 
76.09950246080084, 12.304100914527421, 20.88159047559638, 78.03768698093475, 59.06993042681009, 62.604163955499004 
75.19734706664374, 12.624128078302752, 20.881282300440517, 77.57966525009331, 58.67173035282401, 62.60815051605444 
74.2949551195747, 12.946569298302956, 20.880964364434828, 77.12023899361813, 58.27562738454351, 62.612145307142455 
73.39226586202801, 13.271345714030662, 20.880636623080168, 76.65941934519618, 57.88165308147557, 62.616146809122604 
72.48921704617158, 13.59837796740911, 20.88029904134101, 76.19721653577702, 57.48983903188561, 62.620153514107024 
71.58574495445959, 13.927586202300798, 20.879951593820696, 75.73363997273302, 57.100216851358375, 62.624163926756204 
70.68178442073585, 14.25889006309981, 20.879594264925597, 75.26869831315314, 56.71281818120097, 62.628176565053096 
69.7772688519141, 14.592208692414097, 20.8792270490179, 74.80239953181095, 56.32767468668905, 62.632189961055566 
68.87213025026671, 14.927460727855669, 20.87884995055695, 74.33475098429074, 55.944818055156546, 62.6362026616262 
67.96629923635918, 15.264564297958197, 20.878462984228804, 73.86575946570618, 55.56427999392931, 62.64021322913945 
