# MEX_intpoint_lon [deg], MEX_intpoint_lat [deg], MEX_intpoint_angle [deg], TGO_intpoint_lon [deg], TGO_intpoint_lat [deg], TGO_intpoint_angle [deg] 
-139.30886490358952, 19.589519847656582, 21.76815561935938, -27.442580884131083, 40.97835526709264, 62.900158450412846 
-140.1997318130622, 19.187399831283663, 21.768756353733075, -27.71284364998451, 41.388625697634396, 62.895481766977454 
-141.08897368311764, 18.786413275834906, 21.769344976773496, -27.977948429901723, 41.801427055626796, 62.89076882665338 
-141.9766944669131, 18.386654174764416, 21.76992132378214, -28.23779100725651, 42.21670269696419, 62.88602111093509 
-142.8629964727703, 17.988215861065648, 21.77048524473434, -28.49226305493776, 42.6343954404861, 62.881240146121335 
-143.74798034380456, 17.59119103121736, 21.771036604294274, -28.741251907557892, 43.05444753756477, 62.87642750278484 
-144.63174503859048, 17.195671768090964, 21.7715752818122, -28.984640321894382, 43.47680063933574, 62.87158479518881 
-145.51438781271824, 16.801749562785176, 21.77210117130408, -29.222306224850406, 43.90139576143724, 62.866713680650065 
-146.39600420110457, 16.409515335355103, 21.772614181413616, -29.45412244817655, 44.32817324611465, 62.86181585884954 
-147.27668800093457, 16.019059454405816, 21.773114235356726, -29.67995644914736, 44.757072721534335, 62.85689307108999 
-148.15653125511975, 15.63047175552102, 21.773601270848616, -29.899670016337566, 45.188033058139226, 62.85194709950164 
-149.03562423616887, 15.243841558500218, 21.7740752400137, -30.113118959589915, 45.62099232186484, 62.84697976619605 
-149.91405543037712, 14.859257683378427, 21.774536109278305, -30.320152783212563, 46.05588772402021, 62.841992932368754 
-150.79191152224948, 14.476808465204428, 21.77498385924647, -30.5206143413862, 46.4926555676227, 62.83698849735123 
-151.66927737908222, 14.096581767554769, 21.77541848455903, -30.714339474702264, 46.93123118995844, 62.83196839761265 
-152.5462360356372, 13.718664994761921, 21.775839993736163, -30.901156626691325, 47.37154890112239, 62.82693460571234 
-153.42286867885048, 13.34314510283649, 21.77624840900359, -31.08088643913737, 47.8135419182716, 62.821889129203456 
-154.29925463252638, 12.970108609064376, 21.776643766102875, -31.253341324908426, 48.25714229530483, 62.81683400948874 
-155.17547134197602, 12.599641600261124, 21.777026114085782, -31.418325016966417, 48.70228084765759, 62.81177132062916 
-156.0515943585676, 12.231829739666829, 21.77739551509332, -31.575632092152617, 49.148887071878, 62.80670316810629 
-156.92769732416275, 11.866758272466228, 21.777752044119477, -31.725047468275807, 49.59688905962066, 62.801631687539526 
-157.80385195542237, 11.504512029919715, 21.778095788760247, -31.86634587296437, 50.046213405668084, 62.796559043358904 
-158.68012802797068, 11.145175432092428, 21.778426848948055, -31.999291282676648, 50.49678510955686, 62.791487427434774 
-159.55659336041606, 10.788832489169584, 21.77874533667215, -32.12363633020205, 50.94852747035316, 62.78641905766525 
-160.43331379823164, 10.43556680134786, 21.77905137568518, -32.23912167892701, 51.40136197408492, 62.78135617652289 
-161.31035319750762, 10.08546155729373, 21.77934510119644, -32.34547536208817, 51.855208173300056, 62.77630104956143 
-162.18777340859307, 9.738599531161247, 21.77962665955219, -32.44241208519261, 52.309983558177954, 62.77125596388422 
-163.06563425965132, 9.395063078163272, 21.779896207903445, -32.52963248975436, 52.76560341857653, 62.766223226575455 
-163.94399354016025, 9.054934128691638, 21.780153913861724, -32.606822376481155, 53.22198069634986, 62.761205163095596 
-164.82290698439454, 8.718294180983563, 21.780399955143174, -32.67365188605, 53.67902582721977, 62.75620411564257 
-165.70242825493258, 8.385224292333207, 21.780634519201573, -32.72977463563984, 54.136646571431065, 62.751222441480024 
-166.58260892623792, 8.05580506884937, 21.78085780285068, -32.77482680945099, 54.59474783236173, 62.746262511234335 
-167.4634984683695, 7.730116653761939, 21.78107001187642, -32.808426201540755, 55.05323146219934, 62.74132670716172 
-168.34514423088075, 7.4082387142821915, 21.781271360639465, -32.830171209452715, 55.51199605373009, 62.7364174213875 
-169.2275914269742, 7.090250427023896, 21.78146207166869, -32.839639777323654, 55.97093671722011, 62.731537054118604 
-170.11088311798102, 6.776230461994473, 21.78164237524606, -32.836388287430566, 56.4299448412991, 62.7266880118315 
-170.995060198242, 6.466256965168046, 21.781812508983478, -32.819950399503924, 56.888907836683956, 62.72187270543732 
-171.8801613804699, 6.16040753965463, 21.781972717392122, -32.78983583760334, 57.347708861506504, 62.71709354842543 
-172.76622318167762, 5.858759225482227, 21.78212325144498, -32.74552912494556, 57.80622652693564, 62.71235295498813 
-173.65327990976104, 5.561388478011258, 21.782264368132907, -32.68648826782032, 58.26433458171008, 62.70765333812753 
-174.54136365082869, 5.2683711450040835, 21.78239633001508, -32.61214339065372, 58.72190157412617, 62.702997107747244 
-175.4305042573749, 4.9797824423744546, 21.782519404764123, -32.52189532541712, 59.17879048995831, 62.69838666873029 
-176.3207293373943, 4.695696928645521, 21.782633864706817, -32.4151141599706, 59.63485836472843, 62.693824419005665 
-177.2120642445407, 4.416188478147772, 21.782739986360735, -32.29113775162054, 60.08995586868997, 62.68931274760515 
-178.10453206943347, 4.14133025299142, 21.78283804996758, -32.149270214212805, 60.5439268628557, 62.68485403271287 
-178.99815363221876, 3.8711946738511873, 21.782928339023712, -31.988780389538242, 60.996607924381074, 62.680450639709356 
-179.8929474764921, 3.6058533896047575, 21.7830111398086, -31.80890031676359, 61.447827839622775, 62.67610491921216 
179.2110701353079, 3.345377245869447, 21.78308674091171, -31.608823717097636, 61.89740706323321, 62.67181920511582 
178.31388522492566, 3.0898362524850294, 21.78315543275853, -31.387704515046398, 62.34515714173671, 62.667595812632285 
177.41548609962493, 2.839299549994416, 21.78321750713626, -31.144655422499078, 62.79088010016955, 62.66343703633467 
176.51586335172595, 2.593835375176914, 21.78327325671988, -30.87874661762464, 63.23436779057389, 62.65934514820665 
175.61500985623508, 2.3535110256926455, 21.783322974599212, -30.589004557259372, 63.67540120142369, 62.655322395699 
174.71292076646031, 2.118392823899932, 21.78336695380748, -30.2744109692477, 64.11374972745692, 62.65137099979605 
173.8095935075076, 1.8885460799109755, 21.783405486852125, -29.93390208018084, 64.54917039990679, 62.647493153094274 
172.90502776755568, 1.6640350539544553, 21.783438865248428, -29.566368144274968, 64.98140707780107, 62.64369101789475 
171.99922548681047, 1.4449229181171153, 21.783467379056546, -29.170653350844404, 65.41018960185575, 62.63996672431227 
171.0921908440439, 1.2312717175393952, 21.783491316422595, -28.745556201032127, 65.83523291356818, 62.63632236840296 
170.18393024062587, 1.0231423311434802, 21.783510963124332, -28.289830459192984, 66.2562361434532, 62.63276001031262 
169.2744522819636, 0.8205944319749713, 21.7835266021221, -27.80218680055671, 66.67288167400581, 62.62928167244829 
168.36376775626835, 0.6236864472423129, 21.78353851311562, -27.281295294407318, 67.08483418496577, 62.62588933767491 
167.45188961057468, 0.4324755181406538, 21.783546972107075, -26.725788880752738, 67.49173969085005, 62.62258494753924 
166.53883292394548, 0.2470174595493549, 21.783552250971326, -26.13426801790593, 67.8932245835596, 62.619370400523486 
165.62461487780226, 0.06736671969458025, 21.783554617033534, -25.505306697906338, 68.28889469620157, 62.61624755033043 
164.70925472332846, -0.10642366012960702, 21.783554332654973, -24.837460045347456, 68.67833440813861, 62.61321820420251 
163.79277374590237, -0.27430208568635617, 21.783551654827416, -24.129273731646503, 69.06110581570502, 62.610284121276386 
162.87519522652426, -0.43621844967073725, 21.783546834776768, -23.379295449373576, 69.43674799802073, 62.60744701097568 
161.9565444002122, -0.5921241712361075, 21.78354011757634, -22.586088697723824, 69.80477641285674, 62.604708531443514 
161.03684841135106, -0.7419722350733466, 21.783531741770368, -21.748249127780326, 70.1646824634838, 62.60207028801667 
160.1161362659888, -0.885717229943626, 21.783521939008217, -20.86442368150584, 70.5159332837336, 62.59953383174396 
159.19443878108495, -1.0233153865651317, 21.783510933689808, -19.933332727475136, 70.85797179489823, 62.597100657949575 
158.27178853072695, -1.1547246147542773, 21.783498942622643, -18.953795344812203, 71.19021709427793, 62.59477220484453 
157.34821978934124, -1.2799045397225, 21.783486174691024, -17.9247578299615, 71.51206524072416, 62.592549852187 
156.42376847193697, -1.3988165374304904, 21.78347283053773, -16.845325394241094, 71.82289050685449, 62.5904349199937 
155.49847207143134, -1.5114237689030428, 21.783459102258753, -15.71479687968101, 72.12204717004069, 62.58842866730379 
154.5723695931177, -1.6176912134092944, 21.783445173111318, -14.532702143921307, 72.4088719139595, 62.586532290997205 
153.645501486348, -1.7175857004152317, 21.78343121723576, -13.298841551758327, 72.68268690851944, 62.58474692466853 
152.7179095735133, -1.8110759402175676, 21.783417399391404, -12.013326764581231, 72.94280362734943, 62.583073637558115 
151.789636976417, -1.8981325531710924, 21.783403874707066, -10.676621747391797, 73.18852744781087, 62.58151343354202 
150.8607280401456, -1.978728097424709, 21.78339078844626, -9.289582630039334, 73.41916305787889, 62.5800672501816 
149.93122825455382, -2.052837095084886, 21.783378275787527, -7.853494784873079, 73.63402066675151, 62.578735957834496 
149.0011841734905, -2.1204360567291745, 21.783366461620265, -6.370105243826356, 73.83242298169543, 62.577520358827954 
148.07064333190095, -2.1815035041968867, 21.783355460356145, -4.8416484060568825, 74.01371287311309, 62.57642118669557 
147.13965416095274, -2.2360199915883947, 21.78334537575646, -3.270862917798832, 74.1772616046411, 62.575439105478495 
146.20826590133805, -2.2839681244096433, 21.78333630077576, -1.6609976733565115, 74.32247745771821, 62.57457470909212 
145.27652851491663, -2.325332576803659, 21.783328317421645, -0.015805118493279216, 74.44881453386195, 62.57382852075891 
144.34449259486937, -2.3601001068163368, 21.783321496631352, 1.6604795489109188, 74.55578147697366, 62.57320099250833 
143.41220927453955, -2.388259569649576, 21.783315898164847, 3.363174092834176, 74.64294982686754, 62.57269250474453 
142.47973013514533, -2.409801928860883, 21.783311570514925, 5.087199930864543, 74.70996169829726, 62.57230336588182 
141.5471071125519, -2.42472026547473, 21.78330855083422, 6.82714701064317, 74.75653648072009, 62.57203381204965 
140.6143924032966, -2.4330097849773655, 21.7833068648793, 8.577351183855944, 74.78247627521056, 62.571884006866 
139.68163837006264, -2.434667822173234, 21.783306526971945, 10.331981543184726, 74.78766982672612, 62.57185404128065 
138.7488974468019, -2.4296938438879714, 21.783307539977585, 12.085134475332163, 74.77209477051608, 62.57194393348789 
137.8162220437057, -2.418089449509404, 21.783309895301002, 13.83093068580456, 74.73581808681699, 62.57215362890915 
136.88366445222675, -2.399858369364919, 21.783313572899253, 15.56361122676365, 74.67899474220346, 62.57248300024524 
135.9512767503523, -2.3750064609403005, 21.783318541311814, 17.27762863481625, 74.6018645820246, 62.57293184759861 
135.01911070832872, -2.3435417029517764, 21.78332475770792, 18.967729652005325, 74.50474761897286, 62.573499898664714 
134.08721769503595, -2.3054741872898257, 21.783332167951006, 20.629026617026017, 74.38803793143536, 62.574186808993005 
133.1556485852058, -2.2608161088597245, 21.78334070668016, 22.257055404390695, 74.25219643683799, 62.57499216231697 
132.22445366767565, -2.209581753350484, 21.783350297408578, 23.84781867111735, 74.09774283675759, 62.57591547095233 
131.29368255486332, -2.1517874829698544, 21.783360852638697, 25.39781405549957, 73.92524704146544, 62.57695617626339 
130.36338409364345, -2.0874517201894958, 21.783372273994065, 26.904047782475004, 73.73532037319819, 62.5781136491969 
129.4336062777994, -2.01659492954998, 21.783384452367606, 28.3640348056117, 73.52860682290697, 62.57938719088215 
128.50439616221763, -1.939239597581287, 21.783397268086222, 29.775787120689003, 73.305774598644, 62.58077603329737 
127.5757997789826, -1.8554102108995807, 21.783410591091393, 31.13779220778285, 73.06750815963667, 62.58227934000069 
126.64786205552366, -1.7651332325462536, 21.783424281135584, 32.448983705633914, 72.81450088284049, 62.583896206925324 
125.7206267349538, -1.6684370766400352, 21.783438187994232, 33.70870641693143, 72.54744846212388, 62.58562566323761 
124.79413629873257, -1.5653520814173234, 21.783452151692977, 34.91667761801615, 72.26704309713988, 62.5874666722568 
123.8684318917743, -1.4559104807401424, 21.783466002749886, 36.072946436696576, 71.97396849136854, 62.58941813243541 
122.94355325011227, -1.3401463741546573, 21.78347956243228, 37.17785280135707, 71.6688956478557, 62.59147887839901 
122.01953863121913, -1.218095695586863, 21.78349264302791, 38.23198718286069, 71.35247942715613, 62.59364768204375 
121.0964247470725, -1.0897961807646686, 21.78350504813006, 39.236152071338374, 71.0253558146525, 62.59592325369056 
120.17424670004344, -0.9552873334585842, 21.783516572936197, 40.19132586967903, 70.68813983310879, 62.59830424329415 
119.253037921674, -0.8146103906351595, 21.78352700455984, 41.098629655092815, 70.34142403013635, 62.600789241705684 
118.33283011439921, -0.6678082866192766, 21.783536122355148, 41.95929706499432, 69.98577746822988, 62.60337678198684 
117.41365319625673, -0.5149256163628344, 21.783543698253894, 42.77464740505968, 69.62174514619694, 62.60606534077464 
116.49553524861666, -0.356008597918354, 21.783549497114233, 43.54606195417022, 69.24984778427755, 62.608853339693816 
115.57850246695261, -0.191105034216805, 21.783553277080976, 44.27496334974275, 68.87058191026311, 62.61173914681639 
114.66257911466455, -0.020264274249147198, 21.78355478995682, 44.962797873341245, 68.4844201898458, 62.61472107816567 
113.74778747995222, 0.156462826248859, 21.78355378158397, 45.61102041580239, 68.09181195076614, 62.61779739926297 
112.83414783572957, 0.3390239445094932, 21.78354999223575, 46.221081878813216, 67.69318385670675, 62.62096632671543 
111.9216784025584, 0.5273653307451156, 21.783543157017704, 46.79441876176615, 67.2889406930395, 62.624226029842525 
111.01039531457138, 0.7214318483622569, 21.78353300627753, 47.332444685115995, 66.87946623229666, 62.62757463233943 
110.10031258834502, 0.9211670142814888, 21.78351926602341, 47.83654361129902, 66.46512415250007, 62.6310102139753 
109.19144209467416, 1.1265130392689902, 21.78350165835023, 48.308064539046406, 66.04625898619338, 62.63453081232408 
108.28379353319231, 1.3374108681871237, 21.783479901872923, 48.74831746466353, 65.62319708216951, 62.63813442452604 
107.37737440977332, 1.5538002200738166, 21.78345371216667, 49.15857042305757, 65.19624756548424, 62.64181900907767 
106.47219001664419, 1.7756196279626637, 21.783422802213053, 49.54004744086925, 64.76570328442898, 62.645582487647985 
105.56824341513104, 2.002806478358459, 21.783386882851854, 49.89392725322377, 64.3318417357451, 62.64942274691874 
104.66553542095578, 2.2352970502852476, 21.783345663237718, 50.221342653828515, 63.8949259615471, 62.653337640446715 
103.7640645919941, 2.4730265538273724, 21.783298851301172, 50.523380365089075, 63.45520541323172, 62.6573249905457 
102.86382721840238, 2.7159291680865856, 21.78324615421341, 50.801081330405175, 63.0129167791343, 62.661382590185944 
101.96481731501595, 2.963938078481638, 21.783187278854104, 51.05544134477801, 62.56828477389592, 62.66550820490883 
101.06702661591777, 3.2169855133202034, 21.783121932281823, 51.28741195231239, 62.12152288846906, 62.669699574754844 
100.17044457107438, 3.4750027795758633, 21.783049822206255, 51.497901550192296, 61.67283410045206, 62.673954416202164 
99.2750583449327, 3.7379202978068213, 21.782970657461806, 51.687776648333475, 61.222411545035854, 62.67827042411395 
98.38085281687049, 4.005667636155994, 21.782884148481713, 51.85786324228447, 60.770439147301836, 62.68264527369227 
97.48781058339098, 4.278173543375953, 21.782790007772288, 52.008948264173725, 60.31709221694743, 62.68707662243601 
96.59591196195318, 4.555365980825331, 21.782687950386563, 52.141781082705, 59.86253800676387, 62.69156211210108 
95.7051349963269, 4.837172153387121, 21.782577694396682, 52.25707502850276, 59.40693623635866, 62.69609937066044 
94.81545546336481, 5.123518539262365, 21.78245896136449, 52.35550892561261, 58.95043958272655, 62.7006860142619 
93.9268468810818, 5.4143309185965425, 21.782331476809663, 52.437728613770346, 58.493194139332594, 62.7053196491817 
93.03928051793558, 5.709534400898927, 21.782194970674816, 52.50434844925981, 58.03533984539574, 62.70999787377149 
92.15272540320284, 6.009053451218726, 21.7820491777869, 52.555952774866036, 57.577010887055266, 62.714718280396944 
91.26714833834797, 6.312811915045112, 21.781893838314357, 52.59309735167069, 57.118336072074335, 62.71947845736574 
90.38251390928392, 6.620733041901047, 21.781728698219418, 52.616310747296254, 56.65943917969164, 62.72427599084306 
89.4987844994277, 6.932739507604341, 21.781553509704903, 52.626095676739574, 56.200439287174724, 62.72910846675248 
88.61592030345618, 7.248753435171928, 21.78136803165498, 52.62293029319498, 55.74145107456522, 62.73397347266045 
87.73387934167158, 7.568696414346573, 21.781172030069346, 52.60726942729407, 55.28258510903536, 62.7388685996425 
86.85261747489037, 7.8924895197276355, 21.780965278490186, 52.579545774019536, 54.82394811020327, 62.74379144412886 
85.97208841977235, 8.220053327490637, 21.780747558421353, 52.54017102721758, 54.365643197679454, 62.74873960972845 
85.09224376451316, 8.551307930682368, 21.780518659739283, 52.48953696216177, 53.907770122043694, 62.75371070902867 
84.21303298482572, 8.886172953081257, 21.78027838109505, 52.42801646703593, 53.450425480377895, 62.75870236536986 
83.33440346014333, 9.224567561614773, 21.780026530307033, 52.35596452452276, 52.99370291741015, 62.76371221459219 
82.45630048998134, 9.566410477327748, 21.779762924743718, 52.27371914492561, 52.53769331325634, 62.76873790675396 
81.57866731039917, 9.911619984898032, 21.77948739169609, 52.18160225242626, 52.082484958680155, 62.77377710781901 
80.70144511051171, 10.260113940697483, 21.779199768739087, 52.079920526204866, 51.62816371872986, 62.77882750131226 
79.82457304900292, 10.611809779398452, 21.778899904081815, 51.96896619822736, 51.174813185550754, 62.783886789941555 
78.94798827060238, 10.966624519127592, 21.778587656905714, 51.84901780955037, 50.72251482111661, 62.7889526971846 
78.07162592248997, 11.324474765170764, 21.77826289769066, 51.720340927009985, 50.27134809057029, 62.79402296883913 
77.19541917060174, 11.685276712234051, 21.777925508528195, 51.58318882215546, 49.82139058681458, 62.79909537453564 
76.31929921581502, 12.048946145267939, 21.77757538342165, 51.43780311426445, 49.37271814694805, 62.80416770921071 
75.44319530999874, 12.4153984388627, 21.777212428572735, 51.28441437924036, 48.92540496109732, 62.80923779454024 
74.56703477192126, 12.784548555224802, 21.776836562654154, 51.12324272614438, 48.47952367415713, 62.814303480330885 
73.69074300301426, 13.156311040745347, 21.776447717067967, 50.95449834305961, 48.035145480911574, 62.81936264586898 
72.81424350300034, 13.530600021172795, 21.776045836189194, 50.778382013924364, 47.59234021497577, 62.824413201225724 
71.93745788539668, 13.907329195403628, 21.77563087759451, 50.595085607907066, 47.15117643196391, 62.829453088517454 
71.0603058929173, 14.286411827905718, 21.77520281227555, 50.40479254282886, 46.711721487260334, 62.83448028312017 
70.18270541280195, 14.667760739790427, 21.774761624836625, 50.20767822407205, 46.27404160874182, 62.83949279483766 
69.3045724921092, 15.051288298550583, 21.774307313676548, 50.003910460344805, 45.8382019647739, 62.844488669021544 
