# MEX_intpoint_lon [deg], MEX_intpoint_lat [deg], MEX_intpoint_angle [deg], TGO_intpoint_lon [deg], TGO_intpoint_lat [deg], TGO_intpoint_angle [deg] 
-138.91697526422962, 19.49602186692805, 21.50136583968587, -27.67290587472183, 44.184792733754136, 62.83165049397987 
-139.81657126647164, 19.108275346126533, 21.501935239652553, -27.994189441925897, 44.58279895751936, 62.827092726760284 
-140.714545149687, 18.72158289338201, 21.502493511075404, -28.311133275813127, 44.9834753131523, 62.82250456504516 
-141.61099490916055, 18.336037110250977, 21.503040497308085, -28.62364794511925, 45.386774047450274, 62.817887446597155 
-142.50601707667937, 17.95172994627582, 21.503576055185988, -28.9316402609548, 45.79264707184109, 62.81324284691687 
-143.39970669478808, 17.568752719393295, 21.504100055041484, -29.235013050166724, 46.201045943645305, 62.80857227873636 
-144.29215729228696, 17.18719613546839, 21.50461238070298, -29.533664915290966, 46.6119218456008, 62.803877291467174 
-145.1834608608359, 16.807150306916014, 21.50511292947774, -29.827489980139067, 47.02522556354245, 62.799159470603264 
-146.07370783253654, 16.428704770374754, 21.505601612118443, -30.116377619985077, 47.4409074621215, 62.79442043707898 
-146.96298705837458, 16.051948503399636, 21.506078352773812, -30.400212175235833, 47.858917458438114, 62.789661846582646 
-147.8513857874134, 15.676969940141998, 21.50654308892306, -30.67887264737723, 48.27920499344978, 62.78488538882583 
-148.73898964663996, 15.303856985987206, 21.50699577129462, -30.952232375890954, 48.70171900100552, 62.78009278676872 
-149.62588262137115, 14.932697031122089, 21.50743636376908, -31.22015869472956, 49.12640787434253, 62.77528579580233 
-150.51214703613934, 14.563576963005763, 21.507864843266606, -31.482512566821875, 49.5532194298667, 62.770466202887775 
-151.39786353598245, 14.19658317771942, 21.5082811996189, -31.739148194954943, 49.98210086802199, 62.765635825653035 
-152.28311106807382, 13.831801590171574, 21.508685435426067, -31.989912607241813, 50.412998731035906, 62.76079651144842 
-153.1679668636326, 13.469317643137387, 21.50907756589839, -32.23464521523595, 50.845858857307846, 62.75595013636056 
-154.05250642006658, 13.109216315111434, 21.50945761868351, -32.473177342591676, 51.280626332185875, 62.75109860418632 
-154.93680348330358, 12.751582126955372, 21.509825633679, -32.705331721994, 51.71724543485251, 62.74624384536693 
-155.82093003027705, 12.396499147322746, 21.510181662830735, -32.93092195789112, 52.15565958101453, 62.74138781588323 
-156.70495625153796, 12.044050996844982, 21.51052576991737, -33.14975195235532, 52.59581126106152, 62.73653249611322 
-157.58895053397214, 11.694320851063736, 21.510858030321163, -33.361615291173095, 53.03764197332604, 62.73167988965207 
-158.4729794436093, 11.347391442096399, 21.51117853078543, -33.566294587021524, 53.48109215204266, 62.72683202209642 
-159.3571077085164, 11.00334505902267, 21.511487369159124, -33.763560776322706, 53.92610108956312, 62.721990939793045 
-160.24139820177479, 10.662263546982023, 21.51178465412865, -33.953172366081546, 54.37260685234189, 62.717158708553605 
-161.12591192454656, 10.324228304972852, 21.512070504937512, -34.13487462670163, 54.820546190157714, 62.71233741233647 
-162.01070798924263, 9.989320282346076, 21.51234505109406, -34.308398726437545, 55.26985443798366, 62.70752915189598 
-162.89584360280966, 9.657619973987378, 21.51260843206764, -34.47346080278023, 55.720465409858804, 62.70273604340164 
-163.7813740501607, 9.329207414183854, 21.51286079697383, -34.629760965680816, 56.172311284050025, 62.69796021702712 
-164.66735267777807, 9.004162169172794, 21.51310230424883, -34.77698222709819, 56.62532247871881, 62.693203815511175 
-165.55383087752435, 8.68256332837186, 21.513333121313792, -34.914789350905615, 57.07942751722919, 62.68846899269154 
-166.44085807070195, 8.364489494291995, 21.51355342422924, -35.04282761670971, 57.53455288214265, 62.68375791201284 
-167.32848169240626, 8.05001877113623, 21.513763397340192, -35.160721490622926, 57.99062285684834, 62.679072745010394 
-168.21674717622415, 7.739228752089616, 21.513963232912502, -35.26807319548751, 58.447559353667216, 62.67441566977107 
-169.10569793933206, 7.432196505307741, 21.514153130760757, -35.36446117247696, 58.905281727147766, 62.669788869372304 
-169.99537536805494, 7.128998558613234, 21.51433329786829, -35.44943842540323, 59.36370657113703, 62.66519453030164 
-170.8858188039495, 6.829710882912144, 21.51450394799987, -35.5225307384391, 59.8227474980619, 62.66063484085732 
-171.77706553048083, 6.534408874344587, 21.514665301307506, -35.58323475733087, 60.28231489869106, 62.65611198953225 
-172.6691507603643, 6.2431673351861, 21.514817583929872, -35.631015923539614, 60.7423156804663, 62.651628163382405 
-173.56210762364938, 5.956060453518986, 21.514961027585894, -35.6653062501193, 61.202652982290424, 62.64718554638172 
-174.45596715662376, 5.6731617816956765, 21.515095869163186, -35.6855019275393, 61.663225863436885, 62.64278631776479 
-175.35075829162093, 5.394544213618351, 21.515222350301546, -35.690960747109536, 62.12392896400175, 62.638432650359206 
-176.24650784781517, 5.120279960862377, 21.515340716972393, -35.68099932920198, 62.58465213404875, 62.63412670890924 
-177.14324052309212, 4.850440527673615, 21.515451219054498, -35.65489014312538, 63.04528002830318, 62.62987064839264 
-178.04097888708392, 4.58509668487261, 21.51555410990666, -35.611858305354986, 63.50569166292681, 62.625666612332026 
-178.9397433754592, 4.324318442701682, 21.515649645937778, -35.55107814291778, 63.965759930553546, 62.6215167311032 
-179.83955228556104, 4.068175022653935, 21.51573808617507, -35.47166950917627, 64.42535106938377, 62.61742312024152 
179.25957822651512, 3.8167348283261453, 21.51581969183079, -35.372693840156174, 64.88432408172278, 62.613387878748625 
178.35763414730948, 3.5700654153405544, 21.51589472586817, -35.25314994107174, 65.34253009690902, 62.60941308740118 
177.45460360575973, 3.3282334603837516, 21.51596345256706, -35.11196949500262, 65.79981167310916, 62.605500807063436 
176.55047687124238, 3.0913047294136864, 21.51602613708994, -34.9480122889979, 66.25600203197023, 62.60165307700545 
175.64524634980347, 2.8593440450892147, 21.516083045048706, -34.76006115752027, 66.7109242196143, 62.59787191322903 
174.7389065784873, 2.632415253479144, 21.516134442073014, -34.54681664945271, 67.16439018695691, 62.59415930680282 
173.83145421767534, 2.4105811901112313, 21.516180593380547, -34.306891433321994, 67.61619978183681, 62.59051722220903 
172.9228880413493, 2.1939036454240317, 21.516221763349904, -34.03880446649473, 68.06613964499012, 62.586947595703045 
172.01320892519578, 1.9824433296877326, 21.5162582150966, -33.74097496854636, 68.51398200151417, 62.58345233368803 
171.1024198324727, 1.77625983746254, 21.51629021005275, -33.4117162576038, 68.9594833391925, 62.58003331110674 
170.19052579756243, 1.5754116116660344, 21.51631800755109, -33.04922953219838, 69.4023829649479, 62.576692369851706 
169.27753390714082, 1.3799559073233467, 21.516341864413597, -32.65159771119892, 69.84240143083483, 62.57343131719605 
168.3634532788963, 1.189948755076408, 21.516362034545647, -32.21677948208511, 70.27923882147422, 62.57025192424704 
167.4482950377383, 1.0054449245307822, 21.51637876853589, -31.742603754732876, 70.71257289580595, 62.56715592442328 
166.532072289442, 0.8264978875204815, 21.51639231326263, -31.22676477576916, 71.14205707765088, 62.56414501195848 
165.61480009168005, 0.653159781373244, 21.516402911506997, -30.66681822931426, 71.56731829204904, 62.56122084043263 
164.69649542240154, 0.4854813722601931, 21.51641080157363, -30.06017873552204, 71.9879546479317, 62.558385021332924 
163.77717714552492, 0.3235120187153391, 21.51641621691921, -29.40411926060909, 72.40353297272037, 62.555639122645964 
162.85686597391856, 0.1672996354114685, 21.51641938578951, -28.695773072524478, 72.81358621130515, 62.55298466748258 
161.93558442965235, 0.016890657279911462, 21.51642053086516, -27.9321390157838, 73.21761071100231, 62.55042313273791 
161.01335680151075, -0.12766999593769787, 21.51641986891691, -27.110091036647187, 73.61506342603825, 62.54795594778724 
160.09020909976823, -0.26633895461710794, 21.516417610470658, -26.226393062945487, 74.00535909042878, 62.545584493219856 
159.1661690082354, -0.3990744335701488, 21.51641395948269, -25.277720525310045, 74.3878674273983, 62.54331009961236 
158.24126583359487, -0.5258362656660861, 21.516409113025656, -24.26068998740637, 74.76191048725428, 62.54113404634305 
157.31553045205456, -0.6465859346679467, 21.51640326098557, -23.171898514489293, 75.12676023429795, 62.53905756044833 
156.38899525335657, -0.7612866071969095, 21.516396585770394, -22.007974526051164, 75.48163653702332, 62.537081815523344 
155.46169408218861, -0.8699031637392389, 21.516389262030426, -20.765641912750908, 75.82570575415907, 62.53520793066771 
154.5336621770558, -0.9724022286115962, 21.51638145639094, -19.44179910125044, 76.15808015089621, 62.533436969477535 
153.60493610667933, -1.068752198802615, 21.516373327197485, -18.033614461670428, 76.47781842267989, 62.53176993908573 
152.67555370399936, -1.1589232716106954, 21.51636502427407, -16.538638899517334, 76.78392764450588, 62.53020778925073 
151.7455539978676, -1.2428874710006748, 21.516356688694632, -14.954935581543294, 77.07536699620368, 62.52875141149593 
150.81497714252617, -1.320618672604758, 21.516348452568042, -13.281225445522052, 77.35105363109108, 62.527401638300006 
149.88386434497642, -1.3920926272963978, 21.516340438837005, -11.517045397091033, 77.60987104702382, 62.5261592423398 
148.95225779035232, -1.457286983269258, 21.516332761091, -9.66291391644372, 77.85068027414763, 62.52502493578605 
148.0202005654192, -1.5161813065572156, 21.51632552339367, -7.720496283781865, 78.0723341013233, 62.5239993696539 
147.08773658032877, -1.5687570999355125, 21.516318820124727, -5.692759002545055, 78.27369441398541, 62.52308313320779 
146.1549104887669, -1.6149978201473898, 21.516312735836685, -3.5841006077399054, 78.45365250597035, 62.52227675342251 
145.2217676066396, -1.6548888934053443, 21.516307345126588, -1.400444376002937, 78.61115196123723, 62.52158069450056 
144.28835382944672, -1.6884177291208342, 21.516302712522908, 0.8507219358849584, 78.7452133952217, 62.52099535744645 
143.35471554850145, -1.7155737318214974, 21.516298892387695, 3.160372774270085, 78.85496003070978, 62.52052107969893 
142.4208995661561, -1.736348311220048, 21.516295928834264, 5.5180477538946295, 78.93964280346803, 62.52015813482106 
141.48695301020098, -1.7507348904046456, 21.5162938556603, 7.912034997976595, 78.99866349993538, 62.51990673224889 
140.5529232476062, -1.7587289121258871, 21.516292696296787, 10.32963145981503, 79.03159437258674, 62.519767017098964 
139.61885779777924, -1.7603278431614997, 21.51629246377239, 12.757468576718713, 79.03819279323797, 62.519739070034824 
138.6848042455132, -1.7555311767454842, 21.51629316069384, 15.181883891870388, 79.01840979944974, 62.5198229071929 
137.75081015380215, -1.7443404330542822, 21.516294779241953, 17.589313503055013, 78.9723918399021, 62.520018480167664 
136.81692297670128, -1.7267591577485917, 21.516297301183457, 19.966677491584687, 78.90047557463565, 62.52032567605603 
135.88318997240737, -1.7027929185751474, 21.5163006978986, 22.301731402665272, 78.80317615713088, 62.520744317561395 
134.94965811673697, -1.6724493000388583, 21.516304930424507, 24.583361200971936, 78.68116993433019, 62.52127416315639 
134.01637401717517, -1.6357378961614055, 21.516309949514167, 26.801806037731765, 78.5352728787048, 62.52191490730511 
133.08338382766706, -1.5926703013481376, 21.51631569571105, 28.94880132826249, 78.36641627213196, 62.522666180743464 
132.15073316431972, -1.543260099390922, 21.516322099439225, 31.017642656035367, 78.17562118733792, 62.523527550818365 
131.21846702217897, -1.4875228506398397, 21.516329081108807, 33.003177735178475, 77.9639731822562, 62.524498521884425 
130.28662969323992, -1.4254760773822963, 21.516336551236712, 34.90173836804574, 77.73259837977359, 62.52557853575818 
129.35526468584555, -1.357139247472953, 21.516344410582434, 36.711026814512195, 77.48264180194518, 62.52676697222889 
128.42441464562017, -1.2825337562632295, 21.516352550298723, 38.42997144691219, 77.2152485124957, 62.52806314962583 
127.49412127807999, -1.2016829068834507, 21.51636085209701, 40.0585654629101, 76.93154783206143, 62.5294663254405 
126.56442527305308, -1.1146118889356433, 21.516369188427234, 41.597700330427756, 76.63264065093749, 62.530975697003896 
125.63536623103589, -1.0213477556588415, 21.516377422671997, 43.04900307501676, 76.31958968443536, 62.532590402217 
124.70698259160355, -0.9219193996329947, 21.516385409354577, 44.41468391266207, 75.99341239610156, 62.53430952033447 
123.77931156398286, -0.8163575270910227, 21.516392994360803, 45.697398364696845, 75.6550762468665, 62.53613207279986 
122.8523890598888, -0.7046946309120826, 21.51640001517422, 46.9001260215782, 75.30549590309153, 62.53805702413174 
121.92624962871508, -0.5869649623720522, 21.516406301124395, 48.02606660148041, 74.94553204206815, 62.54008328285921 
121.0009263951603, -0.4632045017299139, 21.516411673648026, 49.07855286100863, 74.57599141932889, 62.54220970250599 
120.07645099936202, -0.33345092773127066, 21.51641594656241, 50.06097920201982, 74.19762789950143, 62.5444350826216 
119.15285353960009, -0.1977435861120496, 21.516418926351065, 50.97674440705258, 73.81114419480741, 62.54675816985851 
118.23016251762253, -0.056123457187350574, 21.516420412460928, 51.82920675153261, 73.41719409808346, 62.54917765909371 
117.308404786636, 0.09136687738830405, 21.516420197611005, 52.62164971675637, 73.0163850374497, 62.551692194593386 
116.38760550199407, 0.24468326860198641, 21.51641806811171, 53.35725660842421, 72.60928081582611, 62.55430037121941 
115.46778807460592, 0.4037800347166374, 21.516413804194862, 54.03909252846566, 72.19640442967601, 62.557000735676 
114.5489741270803, 0.568609996470107, 21.516407180353557, 54.67009232186055, 71.77824088753842, 62.559791787794744 
113.63118345260825, 0.739124512750419, 21.516397965691752, 55.25305330354086, 71.35523997037227, 62.562671981857235 
112.71443397658098, 0.9152735166589262, 21.516385924282865, 55.790631749273935, 70.92781889296307, 62.56563972795264 
111.79874172092923, 1.0970055518734823, 21.51637081553706, 56.28534230034863, 70.49636483920315, 62.56869339336935 
110.88412077116276, 1.2842678092246806, 21.516352394576742, 56.73955958059118, 70.06123735453599, 62.57183130401881 
109.9705832460806, 1.4770061633989056, 21.51633041261964, 57.15552145413142, 69.62277058679769, 62.5750517458894 
109.05813927011468, 1.6751652096837315, 21.51630461736913, 57.53533346356083, 69.18127537258232, 62.57835296652947 
108.14679694826283, 1.8786883006722583, 21.516274753411125, 57.88097408184236, 68.73704117052812, 62.58173317655705 
107.23656234355964, 2.0875175828450354, 21.516240562617195, 58.19430048926647, 68.2903378459167, 62.5851905511944 
106.32743945702858, 2.3015940329499993, 21.516201784553203, 58.4770546508266, 67.84141731299525, 62.588723231826535 
105.41943021005136, 2.520857494103123, 21.516158156893034, 58.7308695215563, 67.3905150427014, 62.592329327580515 
104.5125344290872, 2.7452467115345813, 21.51610941583685, 58.95727524946283, 66.93785144418469, 62.596006916924864 
103.6067498326678, 2.9746993679079314, 21.51605529653332, 59.15770527937218, 66.48363312882222, 62.59975404928674 
102.70207202059143, 3.2091521181421876, 21.515995533505183, 59.333502287725906, 66.02805406543506, 62.603568746684736 
101.79849446523448, 3.4485406236694427, 21.515929861077833, 59.48592389940655, 65.57129663521404, 62.60744900537623 
100.89600850489619, 3.692799586063586, 21.515858013810004, 59.61614815407831, 65.11353259452711, 62.61139279751656 
99.9946033390895, 3.9418627799783157, 21.515779726926322, 59.72527870221083, 64.65492395335394, 62.61539807282877 
99.09426602568841, 4.195663085335868, 21.515694736750955, 59.8143497206446, 64.19562377661664, 62.61946276028182 
98.19498147984142, 4.454132518710595, 21.515602781141876, 59.884330544864994, 63.73577691517362, 62.623584769775334 
97.2967324745576, 4.7172022638549, 21.515503599925133, 59.936130020576165, 63.27552067273752, 62.62776199382917 
96.39949964287365, 4.984802701317642, 21.51539693532857, 59.970600581103845, 62.81498541448144, 62.63199230927611 
95.50326148150752, 5.256863437108714, 21.51528253241449, 59.988542059935966, 62.35429512261883, 62.63627357895532 
94.60799435590606, 5.53331333036598, 21.5151601395105, 59.9907052495876, 61.89356790378819, 62.64060365340523 
93.71367250659367, 5.814080519984377, 21.515029508638275, 59.97779521916181, 61.432916452647035, 62.64498037255412 
92.82026805673104, 6.099092450169423, 21.514890395939382, 59.950474403634594, 60.972448475682775, 62.64940156740601 
91.92775102079331, 6.3882758948808265, 21.5147425620978, 59.90936547814906, 60.51226707888059, 62.653865061720786 
91.03608931427931, 6.681556981134571, 21.514585772758494, 59.85505403056671, 60.05247112255091, 62.65836867368632 
90.14524876436654, 6.978861211134579, 21.51441979894149, 59.78809104526946, 59.59315554631002, 62.662910217581235 
89.255193121427, 7.280113483208378, 21.514244417451046, 59.70899521079937, 59.134411666924635, 62.66748750542622 
88.36588407132426, 7.585238111523181, 21.514059411279064, 59.618255063411524, 58.67632745147486, 62.67209834862275 
87.47728124841328, 7.894158844562228, 21.513864570002646, 59.51633097803708, 58.218987768056536, 62.6767405595769 
86.58934224916948, 8.206798882343174, 21.513659690174848, 59.40365701753528, 57.76247461603242, 62.681411953307375 
85.70202264637577, 8.523080892363266, 21.513444575708444, 59.280642650477965, 57.30686733765056, 62.68611034903565 
84.81527600380197, 8.84292702425815, 21.513219038252007, 59.14767434707299, 56.85224281267498, 62.69083357175692 
83.92905389131369, 9.166258923163745, 21.512982897557833, 59.005117062205464, 56.39867563751732, 62.695579453790096 
83.04330590035306, 9.492997741772648, 21.512735981841292, 58.853315613966764, 55.94623829021729, 62.70034583630602 
82.15797965973854, 9.823064151078746, 21.51247812813115, 58.69259596545559, 55.495001282492005, 62.70513057083155 
81.27302085173491, 10.156378349806053, 21.51220918261014, 58.523266417078105, 55.04503329995944, 62.70993152072878 
80.38837322835121, 10.49286007251915, 21.51192900094579, 58.34561871604589, 54.596401331537734, 62.71474656264808 
79.50397862782778, 10.832428596415395, 21.51163744861056, 58.159929089273405, 54.14917078892787, 62.71957358795293 
78.61977699128113, 11.175002746799963, 21.511334401191274, 57.96645920541111, 53.70340561700372, 62.724410504116236 
77.73570637947877, 11.520500901247399, 21.51101974468717, 57.76545707131489, 53.25916839585631, 62.729255236086175 
76.85170298972416, 11.868840992454311, 21.510693375796293, 57.55715786784727, 52.8165204351711, 62.734105727620765 
75.96770117283575, 12.21994050979016, 21.510355202189757, 57.34178472952955, 52.37552186155444, 62.738959942589766 
75.08363345021222, 12.573716499553935, 21.510005142773647, 57.11954947221499, 51.93623169936947, 62.743815866243025 
74.19943053098088, 12.93008556394675, 21.50964312793803, 56.89065327263001, 51.49870794559123, 62.748671506444204 
73.31502132923293, 13.288963858771353, 21.509269099792824, 56.65528730333203, 51.06300763914423, 62.75352489486876 
72.43033298135697, 13.650267089871177, 21.508883012390218, 56.413633326356766, 50.62918692514503, 62.7583740881651 
71.54529086348697, 14.013910508323027, 21.508484831933316, 56.16586424857359, 50.197301114434296, 62.763217169078565 
70.65981860908997, 14.379808904398724, 21.508074536970614, 55.91214464153353, 49.76740473874908, 62.76805224753664 
69.77383812672414, 14.747876600312678, 21.507652118576207, 55.65263122837794, 49.339551601854964, 62.77287746169506 
68.88726961800644, 15.118027441773272, 21.507217580515388, 55.38747334017798, 48.91379482693031, 62.77769097894402 
