# MEX_intpoint_lon [deg], MEX_intpoint_lat [deg], MEX_intpoint_angle [deg], TGO_intpoint_lon [deg], TGO_intpoint_lat [deg], TGO_intpoint_angle [deg] 
-139.4019021693553, 19.611032886837496, 21.832632585234652, -27.378600552154214, 40.19911776933644, 62.91703631914919 
-140.29062547078883, 19.20549691138303, 21.833240900027125, -27.63789148321053, 40.611863688013926, 62.912345585505506 
-141.17772432639848, 18.801113695126098, 21.8338368615853, -27.89186244644219, 41.02710018503875, 62.90761718062381 
-142.06330410006825, 18.397977529954876, 21.834420303268804, -28.14040717809881, 41.44476847327625, 62.902852592080215 
-142.9474684667059, 17.996182046123224, 21.834991073404517, -28.383415293944264, 41.864809183745805, 62.89805335395358 
-143.83031939329425, 17.595820237046464, 21.835549035301458, -28.62077206564909, 42.28716233280916, 62.89322104629093 
-144.71195712091983, 17.1969844830183, 21.836094067247604, -28.852358186092253, 42.711767286897675, 62.888357294517654 
-145.5924801476319, 16.799766573815504, 21.836626062488744, -29.07804952293377, 43.13856272464281, 62.88346376879252 
-146.4719852119937, 16.404257730158566, 21.83714492918931, -29.29771685978304, 43.567486596264274, 62.878542183308056 
-147.35056727720138, 16.010548623999004, 21.837650590375365, -29.511225624250056, 43.99847608005847, 62.87359429553632 
-148.22831951565482, 15.61872939760486, 21.838142983859925, -29.71843560212691, 44.43146753581823, 62.868621905420675 
-149.1053332938766, 15.22888968141838, 21.838622062150577, -29.919200636906368, 44.8663964550022, 62.86362685451386 
-149.9816981576838, 14.841118610660706, 21.839087792339726, -30.113368313802386, 45.30319740745729, 62.85861102506306 
-150.85750181752843, 14.455504840659993, 21.83954015597755, -30.30077962739439, 45.74180398448395, 62.85357633904219 
-151.73283013393066, 14.07213656088082, 21.83997914892782, -30.481268631973602, 46.18214873801661, 62.848524757132516 
-152.6077671029393, 13.691101507633697, 21.840404781206995, -30.654662073625204, 46.62416311567505, 62.843458277651656 
-153.4823948415613, 13.312486975445026, 21.840817076806562, -30.820779003036247, 47.06777739142339, 62.838378935432345 
-154.35679357311233, 12.936379827068674, 21.841216073499123, -30.979430367974945, 47.51292059155332, 62.833288800651296 
-155.23104161244729, 12.562866502121782, 21.841601822628345, -31.13041858434467, 47.95952041568685, 62.82818997760908 
-156.10521535103982, 12.192033024328325, 21.841974388883134, -31.273537084674302, 48.40750315247042, 62.823084603462334 
-156.97938924188477, 11.823965007355376, 21.84233385005637, -31.40856984286889, 48.856793589607236, 62.81797484690847 
-157.85363578420905, 11.458747659227706, 21.842680296788476, -31.535290874009473, 49.307314917848785, 62.81286290682491 
-158.72802550798002, 11.096465785308245, 21.843013832296222, -31.653463707962118, 49.75898862853724, 62.807751010862916 
-159.60262695821183, 10.737203789832419, 21.843334572087098, -31.762840835533062, 50.21173440426048, 62.802641413997925 
-160.4775066790733, 10.381045675986194, 21.843642643659727, -31.863163125894072, 50.665470002149185, 62.797536397037305 
-161.35272919781136, 10.028075044518896, 21.843938186190574, -31.95415921399852, 51.120111129310445, 62.792438265086595 
-162.22835700850936, 9.678375090882916, 21.844221350207516, -32.03554485672119, 51.575571309856464, 62.78734934597582 
-163.10445055570545, 9.332028600894521, 21.844492297250646, -32.107022256483134, 52.03176174294737, 62.782271988647175 
-163.98106821790526, 8.989117944910964, 21.844751199520754, -32.16827935117345, 52.48859115122683, 62.77720856150545 
-164.85826629102627, 8.64972507052118, 21.844998239515977, -32.2189890692562, 52.94596561898555, 62.77216145073242 
-165.7360989718207, 8.313931493748752, 21.84523360965711, -32.25880854905911, 53.40378841934329, 62.767133058567524 
-166.61461834132706, 7.981818288768071, 21.845457511902037, -32.28737832138741, 53.86195982969198, 62.76212580155526 
-167.49387434840776, 7.653466076136131, 21.845670157349794, -32.30432145479903, 54.320376934594826, 62.757142108761855 
-168.37391479343594, 7.328955009544917, 21.845871765834872, -32.30924266312592, 54.77893341528555, 62.752184419962525 
-169.25478531219883, 7.00836476110117, 21.846062565512124, -32.30172737514084, 55.23751932486094, 62.747255183801 
-170.13652936009208, 6.691774505142778, 21.846242792433056, -32.28134076666251, 55.69602084820877, 62.742356855923234 
-171.01918819668265, 6.379262900603472, 21.846412690113787, -32.24762675587845, 56.15432004566187, 62.73749189708692 
-171.90280087072355, 6.0709080719399715, 21.846572509095484, -32.200106963263046, 56.6122945793195, 62.73266277124895 
-172.78740420570858, 5.7667875886384135, 21.846722506497706, -32.138279638195016, 57.06981742093057, 62.72787194363262 
-173.6730327860582, 5.466978443319505, 21.8468629455653, -32.06161855525996, 57.52675654019027, 62.723121878776105 
-174.5597189440326, 5.171557028465147, 21.846994095209407, -31.96957188428328, 57.98297457226508, 62.718415038565205 
-175.44749274747176, 4.880599111791553, 21.847116229543246, -31.861561039408272, 58.43832846333373, 62.713753880251076 
-176.33638198846418, 4.594179810297719, 21.847229627413192, -31.736979514047437, 58.89266909291505, 62.709140854456194 
-177.22641217305042, 4.312373563020741, 21.84733457192582, -31.595191710330425, 59.345840871753104, 62.70457840316994 
-178.11760651206924, 4.035254102532934, 21.847431349971487, -31.43553177379439, 59.79768131404928, 62.700068957736036 
-179.00998591325646, 3.762894425219105, 21.847520251745234, -31.257302446559045, 60.24802058287512, 62.695614936834254 
-179.90356897470787, 3.4953667603756666, 21.847601570265333, -31.05977395515508, 60.69668100767596, 62.691218744458375 
179.20162802018058, 3.2327425381767805, 21.84767560089038, -30.842182952589482, 61.1434765728916, 62.686882767892584 
178.30559110618165, 2.9750923565561536, 21.847742640835506, -30.603731538196772, 61.58821237688479, 62.682609375688486 
177.40830863800176, 2.722485947056936, 21.847802988688226, -30.343586383411804, 62.030684060592854, 62.67840091564541 
176.5097712902274, 2.4749921397053094, 21.84785694392464, -30.06087799687387, 62.470677205615786, 62.674259712795525 
175.60997205534187, 2.2326788269674323, 21.847904806426712, -29.754700168304336, 62.90796670183846, 62.67018806739692 
174.70890623969947, 1.995612926852548, 21.847946876001014, -29.424109637456937, 63.34231608517537, 62.66618825293596 
173.8065714573505, 1.7638603452288228, 21.847983451899854, -29.068126042176857, 63.77347684664055, 62.66226251414224 
172.90296762160784, 1.5374859374219803, 21.84801483234518, -28.685732208264955, 64.20118771470763, 62.65841306501764 
171.99809693425448, 1.3165534691700396, 21.848041314056047, -28.27587485344436, 64.62517391385835, 62.654642086882006 
171.09196387229068, 1.1011255770110897, 21.84806319178014, -27.837465788250242, 65.04514640335086, 62.65095172643812 
170.18457517212713, 0.8912637281838203, 21.848080757830044, -27.369383708041102, 65.46080110160119, 62.64734409385764 
169.27593981113344, 0.687028180124097, 21.848094301624915, -26.870476682424528, 65.87181810319149, 62.64382126089084 
168.36606898645866, 0.4884779396435392, 21.848104109237973, -26.339565460970263, 66.27786089742959, 62.640385259002024 
167.4549760910454, 0.29567072187871923, 21.84811046295067, -25.775447726800166, 66.67857559961553, 62.637038077533084 
166.5426766867671, 0.10866290910254416, 21.84811364081384, -25.176903441995837, 67.07359020874561, 62.63378166189746 
165.62918847462478, -0.07249049050867315, 21.84811391621662, -24.5427014400611, 67.46251390832424, 62.630617911806524 
164.71453126194868, -0.24773588405658287, 21.848111557463703, -23.871607430004193, 67.84493643026367, 62.627548679530705 
163.79872692655744, -0.41702113495296406, 21.848106827361242, -23.16239358278312, 68.22042750552318, 62.62457576819769 
162.88179937783812, -0.5802956037033983, 21.848099982812275, -22.413849872412392, 68.58853642913786, 62.621700930129336 
161.96377451471878, -0.7375101883420995, 21.848091274421982, -21.624797339161223, 68.94879177154903, 62.61892586521985 
161.04468018051614, -0.8886173644163109, 21.848080946113367, -20.794103428861526, 69.30070127256514, 62.61625221935719 
160.12454611465148, -1.0335712244182287, 21.84806923475392, -19.9206995379681, 69.6437519586977, 62.61368158288943 
159.20340390123783, -1.1723275165621239, 21.848056369793596, -19.00360085602834, 69.97741052880983, 62.61121548913831 
158.28128691455393, -1.3048436828043906, 21.84804257291478, -18.041928542890833, 70.30112405669433, 62.60885541296176 
157.35823026143092, -1.4310788960047518, 21.848028057694627, -17.034934204697322, 70.6143210619937, 62.606602769367484 
156.43427072058992, -1.550994096127616, 21.848013029280114, -15.982026538284371, 70.91641300233363, 62.604458912178714 
155.50944667897988, -1.664552025384045, 21.847997684076443, -14.882799896732818, 71.20679623914073, 62.602425132754945 
154.58379806517735, -1.7717172622161148, 21.847982209448972, -13.737064389476375, 71.48485452676465, 62.60050265876823 
153.6573662799214, -1.8724562540278826, 21.847966783439343, -12.544876970595642, 71.7499620686147, 62.59869265303736 
152.7301941238689, -1.9667373485692763, 21.847951574495877, -11.306572793247945, 72.00148717445535, 62.596996212421196 
151.8023257226661, -2.054530823882362, 21.847936741218867, -10.022795924335238, 72.23879653927882, 62.595414366772566 
150.87380644944528, -2.1358089167225227, 21.847922432120885, -8.694528332763035, 72.46126014595269, 62.593948077954266 
149.94468284486513, -2.2105458493708094, 21.84790878540264, -7.323115901892353, 72.66825677106758, 62.59259823891838 
149.01500253482413, -2.278717854757797, 21.84789592874445, -5.910290090135307, 72.859180046404, 62.591365672850024 
148.08481414598802, -2.340303199823521, 21.847883979113778, -4.458183793333857, 73.0334449979897, 62.590251132377 
147.15416721928, -2.3952822070430515, 21.847873042589047, -2.9693399691601696, 73.19049495216247, 62.58925529884594 
146.22311212149341, -2.443637274052109, 21.84786321419994, -1.446711685656583, 73.32980866527723, 62.588378781666464 
145.29169995519405, -2.485352891312714, 21.847854577784343, 0.10634753369064245, 73.45090750307827, 62.587622117723676 
144.35998246708766, -2.5204156577644574, 21.847847205862312, 1.6861038726422506, 73.55336247003106, 62.586985770860096 
143.42801195503526, -2.5488142944129724, 21.847841159526986, 3.2884742672822553, 73.63680087090759, 62.58647013142786 
142.4958411739046, -2.570539655813375, 21.847836488352808, 4.90906819177352, 73.70091237926775, 62.58607551591142 
141.56352324045284, -2.5855847394128646, 21.847833230320997, 6.543239472960668, 73.74545429223038, 62.58580216662145 
140.63111153743858, -2.5939446927232206, 21.847831411762506, 8.186146841978047, 73.77025576920573, 62.58565025146054 
139.6986596171661, -2.5956168183007517, 21.84783104731846, 9.83282139185394, 73.77522088399485, 62.58561986376059 
138.76622110466712, -2.5906005765180193, 21.847832139918193, 11.478238663288614, 73.76033036343793, 62.58571102219247 
137.8338496007265, -2.5788975861186128, 21.84783468077482, 13.117392771699558, 73.72564193890473, 62.585923670748016 
136.90159858496014, -2.5605116225532445, 21.847838649398444, 14.745369849929133, 73.67128929559854, 62.58625767879419 
135.96952131915222, -2.5354486141023944, 21.84784401362697, 16.357418127668673, 73.59747966447061, 62.58671284119959 
135.0376707510577, -2.503716635797705, 21.84785072967431, 17.949012195609868, 73.50449015795947, 62.58728887853279 
134.10609941887475, -2.465325901161181, 21.847858742196294, 19.515909385302027, 73.39266299962595, 62.58798543733282 
133.17485935658698, -2.420288751788111, 21.847867984373778, 21.054196694903663, 73.26239983577112, 62.58880209045076 
132.24400200037317, -2.3686196448062464, 21.84787837801308, 22.560327257152423, 73.11415534222094, 62.58973833746241 
131.31357809627517, -2.3103351382502093, 21.847889833663576, 24.0311459269841, 72.94843035090588, 62.59079360515127 
130.38363760931063, -2.2454538743966572, 21.847902250752313, 25.463904114330806, 72.765764719207, 62.591967248061565 
129.45422963420887, -2.1739965611114496, 21.84791551773534, 26.85626446393804, 72.56673015191294, 62.593258549119746 
128.52540230794213, -2.0959859512662176, 21.847929512265708, 28.206296362157552, 72.35192316341978, 62.594666720324724 
127.59720272421472, -2.011446820287084, 21.84794410137786, 29.51246351753476, 72.12195833927875, 62.59619090350494 
126.66967685006576, -1.9204059419036683, 21.847959141688087, 30.773605016903097, 71.87746202417574, 62.5978301711419 
125.74286944472883, -1.8228920621712463, 21.84797447961097, 31.98891131089447, 71.61906653049127, 62.599583527258694 
124.81682398088516, -1.718935871843798, 21.84798995159128, 33.157896548416716, 71.34740492988539, 62.601449908372594 
123.89158256843342, -1.6085699771795507, 21.84800538435128, 34.280368578567334, 71.06310646149427, 62.60342818451015 
122.96718588089041, -1.4918288692647583, 21.84802059515286, 35.35639779132064, 70.76679256536718, 62.60551716028388 
122.04367308452488, -1.3687488919447828, 21.84803539207434, 36.386285794496445, 70.4590735292631, 62.60771557602869 
121.12108177031479, -1.2393682084545599, 21.84804957430155, 37.37053474058105, 70.1405457209794, 62.61002210899667 
120.19944788880787, -1.1037267668432946, 21.848062932432608, 38.309817936028004, 69.81178936679417, 62.61243537460899 
119.27880568795237, -0.9618662642904361, 21.848075248796334, 39.20495219718075, 69.47336682893564, 62.61495392776279 
118.3591876539536, -0.8138301104118512, 21.848086297783553, 40.05687226700791, 69.12582133068965, 62.617576264191634 
117.44062445520038, -0.6596633896565205, 21.84809584619104, 40.86660747862367, 68.76967607620553, 62.620300821877834 
116.52314488929295, -0.49941282289518935, 21.848103653577564, 41.635260746007255, 68.40543371266016, 62.62312598251464 
115.60677583319352, -0.3331267283030399, 21.848109472631684, 42.36398987871466, 68.03357608462888, 62.62605007301635 
114.69154219650805, -0.16085498163875306, 21.848113049550577, 43.05399115387667, 67.65456423380053, 62.62907136707488 
113.77746687789812, 0.017351023977822597, 21.848114124429664, 43.7064850329618, 67.26883860115107, 62.63218808676008 
112.86457072460988, 0.20143841868758153, 21.848112431662365, 44.32270387994158, 66.87681939302712, 62.635398404162565 
111.952872495098, 0.3913528968125291, 21.848107700349455, 44.903881518921224, 66.47890707702929, 62.638700443076324 
111.0423888247111, 0.5870387579749164, 21.84809965471755, 45.4512444604441, 66.07548297794209, 62.64209228071938 
110.13313419439741, 0.7884389483164201, 21.84808801454613, 45.96600462426547, 65.66690994809693, 62.64557194949027 
109.2251209023792, 0.9954951017208301, 21.848072495602555, 46.44935339046377, 65.25353309039605, 62.649137438758196 
108.31835903873701, 1.2081475809452715, 21.848052810084482, 46.902456818674615, 64.83568051571872, 62.65278669668451 
107.41285646283598, 1.426335518567606, 21.848028667069094, 47.3264518856757, 64.41366411955521, 62.65651763207353 
106.5086187835207, 1.6499968576598, 21.847999772968606, 47.72244360347299, 63.987780365469895, 62.660328116250184 
105.6056493419968, 1.8790683920999252, 21.84796583199138, 48.0915028926472, 63.55831106539567, 62.66421598496254 
104.70394919731287, 2.1134858064381543, 21.847926546608083, 48.43466509841931, 63.12552414882793, 62.668179040306605 
103.80351711434967, 2.353183715235377, 21.84788161802229, 48.75292904926735, 62.68967441474945, 62.672215052671284 
102.9043495542201, 2.5980957017958803, 21.847830746644842, 49.04725656968469, 62.25100426160421, 62.676321762701214 
102.00644066697807, 2.848154356219032, 21.84777363257147, 49.31857236963352, 61.80974439188215, 62.680496883275296 
101.10978228653131, 3.1032913126984107, 21.847709976062873, 49.56776424331385, 61.36611448890592, 62.68473810149799 
100.21436392765106, 3.363437285999812, 21.84763947802681, 49.79568351899939, 60.920323864256275, 62.68904308070218 
99.32017278496726, 3.6285221070537004, 21.847561840501463, 50.003145709885324, 60.472572074957085, 62.693409462460146 
98.4271937338386, 3.898474757600583, 21.847476767139447, 50.190931323184756, 60.02304951009145, 62.69783486860124 
97.53540933298346, 4.173223403832017, 21.84738396369189, 50.359786791146135, 59.571937946955266, 62.7023169032336 
96.64479982875861, 4.452695428972843, 21.847283138491864, 50.510425493309995, 59.11941107719403, 62.706853154767515 
95.75534316097172, 4.736817464754527, 21.847174002936615, 50.64352884424421, 58.66563500362795, 62.711441197938655 
94.8670149701146, 5.025515421732309, 21.847056271967933, 50.759747425264514, 58.21076870866373, 62.71607859582849 
93.97978860590452, 5.318714518403089, 21.84692966454999, 50.85970214232931, 57.75496449533021, 62.720762901879986 
93.09363513702303, 5.616339309083706, 21.84679390414412, 50.94398539546041, 57.29836840207064, 62.725491661906354 
92.20852336194316, 5.918313710513249, 21.846648719179818, 51.013162247745726, 56.84112059248314, 62.73026241609057 
91.324419820738, 6.224561027146023, 21.84649384352135, 51.067771584283136, 56.38335572123213, 62.73507270097375 
90.44128880776687, 6.535003975105021, 21.846329016929502, 51.108327253377865, 55.92520327736259, 62.73992005143016 
89.55909238513792, 6.849564704769072, 21.846153985517667, 51.13531918395444, 55.46678790623902, 62.744802002626955 
88.67779039684972, 7.168164821969598, 21.84596850220179, 51.14921447453149, 55.00822971130963, 62.74971609196643 
87.7973404835175, 7.4907254077761865, 21.84577232714358, 51.150458450268374, 54.549644536862964, 62.75465986100895 
86.91769809759532, 7.81716703685252, 21.845565228186363, 51.13947568555891, 54.09114423290486, 62.759630857374965 
86.03881651900723, 8.147409794367531, 21.845346981283022, 51.116670990449414, 53.632836903238115, 62.764626636623206 
85.16064687110828, 8.481373291448536, 21.84511737091548, 51.08243035981737, 53.174827137779374, 62.76964476410463 
84.283138136898, 8.818976679166212, 21.844876190505158, 51.03712188478736, 52.71721623009664, 62.774682816789 
83.40623717541642, 9.160138661043254, 21.844623242813856, 50.981096626298914, 52.26010238109989, 62.77973838506342 
82.52988873825709, 9.504777504080788, 21.844358340334605, 50.91468945109312, 51.80358088976629, 62.78480907450019 
81.6540354861365, 9.852811048299099, 21.844081305671782, 50.83821983066513, 51.3477443317299, 62.78989250759316 
80.77861800546663, 10.2041567147907, 21.843791971910264, 50.751992603949134, 50.89268272651737, 62.79498632546039 
79.90357482488156, 10.558731512286235, 21.843490182972886, 50.656298704670924, 50.4384836941625, 62.80008818951188 
79.02884243167657, 10.916452042234987, 21.84317579396585, 50.551415854430296, 49.98523260188671, 62.80519578308065 
78.15435528812324, 11.277234502404031, 21.84284867151164, 50.437609222666374, 49.53301270148812, 62.810306813016034 
77.2800458476318, 11.640994689001003, 21.842508694068883, 50.31513205472268, 49.08190525804041, 62.81541901123747 
76.40584457073712, 12.00764799732777, 21.84215575223884, 50.184226269266844, 48.63198967046196, 62.82053013624768 
75.5316799408929, 12.377109420972891, 21.841789749058126, 50.045123026340356, 48.18334358447893, 62.82563797460384 
74.65747848006467, 12.749293549552931, 21.841410600277104, 49.89804326731761, 47.73604299846977, 62.83074034234558 
73.78316476411926, 13.124114565013377, 21.84101823462376, 49.7431982280448, 47.29016236264533, 62.83583508637855 
72.90866143801682, 13.50148623650147, 21.8406125940526, 49.58078992641135, 46.845774671987925, 62.84092008581273 
72.03388923081702, 13.881321913824564, 21.84019363397826, 49.411011625580144, 46.402951553342156, 62.84599325325395 
71.15876697052077, 14.263534519508376, 21.839761323493423, 49.234048274070574, 45.96176334702419, 62.85105253604797 
70.28321159877501, 14.648036539471232, 21.839315645570892, 49.05007692385218, 45.522279183289086, 62.85609591747638 
