# MEX_intpoint_lon [deg], MEX_intpoint_lat [deg], MEX_intpoint_angle [deg], TGO_intpoint_lon [deg], TGO_intpoint_lat [deg], TGO_intpoint_angle [deg] 
-137.91611324413552, 19.24265137634472, 20.862636845835567, -27.0918730005416, 51.478637714732244, 62.68353084433958 
-138.83563209542856, 18.89093406005396, 20.863131578563006, -27.579265525492403, 51.829171386100505, 62.67965818573148 
-139.75357083422261, 18.54008486076361, 20.863617410621575, -28.06543312401926, 52.18238346190612, 62.67576837830627 
-140.670012552766, 18.19019196388079, 20.864094204721013, -28.550374338048357, 52.53824234498025, 62.67186263332495 
-141.58503929729653, 17.841342945353084, 20.864561834349765, -29.03408770203625, 52.896716422645326, 62.66794218365739 
-142.49873203300305, 17.49362478368274, 20.8650201837907, -29.516571720461663, 53.25777407066022, 62.664008283369476 
-143.4111706104885, 17.147123871426242, 20.865469148123935, -29.997824844083407, 53.62138365700885, 62.6600622072834 
-144.32243373362704, 16.80192602613846, 20.865908633216527, -30.477845444863963, 53.98751354553322, 62.65610525051204 
-145.23259892871658, 16.458116500722046, 20.86633855569926, -30.956631789449226, 54.35613209941224, 62.65213872796671 
-146.14174251483246, 16.115779993145736, 20.866758842930622, -31.434182011082168, 54.72720768448719, 62.64816397383938 
-147.04993957529476, 15.775000655496367, 20.867169432947875, -31.910494079816026, 55.1007086724351, 62.64418234105916 
-147.95726393016866, 15.435862102332292, 20.86757027440557, -32.38556577087831, 55.476603443791504, 62.640195200723376 
-148.86378810972218, 15.098447418307254, 20.86796132650132, -32.85939463102064, 55.854860390823426, 62.63620394150362 
-149.76958332877288, 14.762839165035556, 20.868342558889225, -33.33197794267245, 56.23544792025409, 62.63220996902729 
-150.6747194618598, 14.429119387171855, 20.868713951581004, -33.8033126856958, 56.618334455840476, 62.628214705234676 
-151.5792650191847, 14.09736961767963, 20.869075494834863, -34.273395496517495, 57.00348844080494, 62.624219587712155 
-152.48328712327006, 13.767670882265113, 20.869427189032475, -34.742222624388674, 57.390878340121894, 62.62022606900216 
-153.38685148628926, 13.440103702954293, 20.869769044544135, -35.209789884495514, 57.78047264266091, 62.61623561589 
-154.2900223880289, 13.114748100792891, 20.8701010815823, -35.676092607611814, 58.17223986318672, 62.61224970866828 
-155.1928626544488, 12.79168359765036, 20.87042333004378, -36.141125585950384, 58.56614854421744, 62.60826984037945 
-156.09543363681075, 12.47098921711093, 20.870735829340784, -36.60488301482913, 58.96216725774142, 62.60429751603689 
-156.9977951913534, 12.152743484436009, 20.871038628220976, -37.06735842972354, 59.36026460679347, 62.60033425182529 
-157.90000565949327, 11.83702442558416, 20.87133178457701, -37.528544638225725, 59.76040922689039, 62.59638157428075 
-158.80212184854105, 11.523909565276215, 20.87161536524554, -37.98843364637268, 60.16256978732652, 62.59244101945153 
-159.7041990129229, 11.213475924094872, 20.871889445796178, -38.44701657874061, 60.56671499232854, 62.588514132039734 
-160.606290835905, 10.905800014609714, 20.872154110310714, -38.9042835916272, 60.97281358206928, 62.58460246452498 
-161.50844941182223, 10.60095783652011, 20.872409451152677, -39.36022377855878, 61.38083433353973, 62.58070757627044 
-162.4107252288171, 10.299024870810412, 20.872655568727787, -39.81482506726129, 61.79074606127766, 62.57683103261244 
-163.3131671521002, 10.000076072913211, 20.87289257123555, -40.26807410712246, 62.20251761795128, 62.57297440393369 
-164.2158224077461, 9.704185864878498, 20.87312057441228, -40.719956146044616, 62.61611789479546, 62.56913926472191 
-165.11873656704503, 9.411428126547962, 20.87333970126595, -41.17045489543953, 63.03151582189729, 62.56532719261364 
-166.02195353143293, 9.121876185735918, 20.87355008180321, -41.619552381946974, 63.44868036832737, 62.56153976742473 
-166.92551551802703, 8.835602807419638, 20.87375185274897, -42.0672287842623, 63.8675805421119, 62.55777857016826 
-167.82946304579812, 8.552680181944327, 20.873945157258916, -42.51346225323012, 64.28818539003979, 62.55404518206054 
-168.73383492241365, 8.2731799122494, 20.874130144625205, -42.958228713097725, 64.71046399729774, 62.55034118351638 
-169.6386682317896, 7.99717300012499, 20.874306969976043, -43.40150164151346, 65.13438548692511, 62.54666815313428 
-170.54399832239173, 7.724729831509419, 20.87447579396923, -43.84325182549677, 65.55991901907815, 62.54302766667271 
-171.44985879633023, 7.455920160840624, 20.874636782480213, -44.28344709018586, 65.98703379009179, 62.53942129601835 
-172.35628149929454, 7.190813094476413, 20.874790106285133, -44.722051996676086, 66.4156990313246, 62.535850608146994 
-173.26329651137684, 6.929477073200422, 20.874935940739146, -45.15902750468173, 66.8458840077703, 62.53231716407879 
-174.1709321388361, 6.671979853833364, 20.875074465450517, -45.594330595067895, 67.27755801641521, 62.52882251782789 
-175.07921490685584, 6.418388489970465, 20.875205863950953, -46.02791384648824, 67.71069038431847, 62.52536821534833 
-175.9881695533504, 6.168769311869044, 20.87533032336252, -46.45972495939947, 68.1452504663864, 62.52195579347678 
-176.89781902387693, 5.923187905511809, 20.87544803406166, -46.88970621957386, 68.58120764280775, 62.518586778873185 
-177.80818446771028, 5.681709090873952, 20.875559189340713, -47.31779389185569, 69.0185313161102, 62.51526268696045 
-178.71928523513992, 5.444396899424353, 20.875663985067437, -47.74391753325589, 69.45719090779079, 62.51198502086422 
-179.631138876048, 5.211314550893404, 20.875762619342897, -48.1679992124884, 69.897155854464, 62.50875527035373 
179.45623886017168, 4.9825244293422815, 20.875855292158242, -48.58995262064312, 70.33839560346033, 62.505574910785036 
178.54283402329438, 4.75808805857063, 20.875942205050837, -49.009682054763175, 70.78087960779466, 62.5024454020472 
177.62863445948514, 4.5380660769020285, 20.876023560760057, -49.42708125252206, 71.2245773204077, 62.49936818751319 
176.71362980700135, 4.322518211388604, 20.87609956288345, -49.842032051817824, 71.66945818756393, 62.49634469299585 
175.79781149031905, 4.111503251478477, 20.876170415533455, -50.25440284370731, 72.1154916412645, 62.49337632571065 
174.88117271262718, 3.9050790221917917, 20.87623632299537, -50.66404678042835, 72.56264709050393, 62.49046447324596 
173.96370844663502, 3.703302356853134, 20.876297489386754, -51.07079969195073, 73.01089391116102, 62.48761050254196 
173.0454154236401, 3.506229069430152, 20.876354118319007, -51.474477654105705, 73.46020143426784, 62.4848157588792 
172.12629212080668, 3.3139139265301463, 20.876406412561316, -51.874874138268545, 73.9105389323407, 62.482081564878285 
171.20633874660768, 3.126410619108249, 20.876454573707594, -52.27175665601894, 74.36187560338203, 62.47940921951103 
170.28555722438523, 2.943771733942434, 20.87649880184674, -52.66486279112062, 74.81418055206686, 62.47679999712496 
169.3639511739892, 2.766048724932436, 20.876539295236682, -53.053895484123245, 75.2674227675038, 62.474255146481525 
168.44152589145696, 2.593291884281064, 20.876576249982662, -53.438517399968816, 75.72157109680263, 62.471775889809486 
167.51828832670122, 2.425550313617732, 20.876609859720197, -53.81834416354059, 76.17659421347365, 62.4693634218743 
166.5942470591769, 2.262871895125435, 20.876640315302993, -54.19293618848527, 76.63246057941318, 62.467018909064684 
165.669412271504, 2.10530326273336, 20.87666780449649, -54.56178874578734, 77.08913839887133, 62.46474348849713 
164.74379572102694, 1.9528897734383557, 20.876692511677152, -54.92431981332531, 77.54659556231934, 62.46253826713958 
163.81741070929723, 1.8056754788192082, 20.8767146175381, -55.279855105798084, 78.00479957748864, 62.46040432095517 
162.89027204947124, 1.663703096808353, 20.876734298801406, -55.627609491282975, 78.46371748397522, 62.45834269406693 
161.96239603162044, 1.5270139837858738, 20.8767517279374, -55.966663734828686, 78.92331574659255, 62.456354397944224 
161.0338003859585, 1.3956481070610625, 20.876767072891422, -56.295935139151176, 79.38356012096997, 62.45444041061252 
160.10450424399414, 1.269644017806732, 20.876780496818327, -56.61414013003636, 79.84441548251226, 62.45260167588631 
159.17452809762653, 1.1490388245112755, 20.876792157825122, -56.91974608677024, 80.30584560642988, 62.45083910262698 
158.24389375620513, 1.0338681670130394, 20.876802208722086, -57.210908633048206, 80.76781288159891, 62.449153564026076 
157.3126243015834, 0.9241661911809618, 20.876810796782635, -57.48538900317216, 81.2302779337021, 62.44754589691463 
156.3807440412016, 0.8199655243046822, 20.876818063512385, -57.74044369465873, 81.69319912211675, 62.44601690109978 
155.4482784592407, 0.7212972512559975, 20.876824144427502, -57.97267493828742, 82.15653185818005, 62.44456733872886 
154.51525416589664, 0.6281908914825807, 20.876829168842903, -58.17782476115585, 82.62022766610029, 62.443197933682505 
153.5816988448294, 0.5406743768930109, 20.876833259670335, -58.35048620282824, 83.0842328655129, 62.44190937099627 
152.64764119884916, 0.4587740306906998, 20.876836533226772, -58.48369009815916, 83.54848668508717, 62.4407022963128 
151.7131108939074, 0.3825145472121289, 20.876839099053278, -58.568300207005976, 84.01291849857624, 62.439577315364126 
150.7781385014671, 0.3119189728228031, 20.87684105974468, -58.59210463844209, 84.47744366778609, 62.43853499348528 
149.84275543933197, 0.24700868792170114, 20.87684251079017, -58.538410122819315, 84.94195710013244, 62.43757585515921 
148.90699391102157, 0.18780339010269825, 20.876843540425075, -58.38379146740476, 85.40632291178231, 62.436700383594605 
147.97088684378272, 0.13432107851836247, 20.876844229494044, -58.09434157258329, 85.870357153863, 62.43590902033571 
147.03446782533507, 0.08657803948869974, 20.87684465132582, -57.61912023397099, 86.3337975173719, 62.43520216490547 
146.09777103945154, 0.04458883339424912, 20.876844871619667, -56.87803968092299, 86.79624700790728, 62.434580174482704 
145.16083120048023, 0.00836628288955464, 20.87684494834374, -55.73785075431447, 87.2570614205594, 62.43404336361254 
144.22368348691865, -0.022078537530439625, 20.876844931645447, -53.960241024481384, 87.71510322151322, 62.43359200395161 
143.2863634741534, -0.0467363105820929, 20.876844863773933, -51.07666277117005, 88.16813618358084, 62.433226324047716 
142.34890706648403, -0.06559948383764214, 20.87684477901482, -46.041271188734015, 88.61108414328483, 62.4329465091541 
141.41135042855004, -0.07866227594137562, 20.87684470363725, -36.09806207889422, 89.02984965439757, 62.43275270107925 
140.47372991628527, -0.08592068137989033, 20.87684465585332, -12.975081307448422, 89.37367588738184, 62.432644998071396 
139.5360820075232, -0.08737247379315316, 20.876844645789973, 33.44966312824544, 89.46849913577493, 62.43262345473884 
138.59844323237974, -0.083017207816958, 20.8768446754734, 68.76286735089718, 89.21778993918169, 62.43268808200544 
137.6608501035407, -0.07285621945172051, 20.87684473882586, 83.64793200757678, 88.8251472690465, 62.43283884710179 
136.72333904658092, -0.056892624956427, 20.87684482167509, 90.5899230662523, 88.39140346235973, 62.43307567359187 
135.78594633044256, -0.035131318271011513, 20.876844901776167, 94.35549283470823, 87.9424610407236, 62.433398441435095 
134.84870799819925, -0.00757896697423091, 20.87684494884588, 96.60415754820608, 87.48653141519466, 62.43380698708403 
133.91165979823114, 0.025755993211459743, 20.876844924609447, 98.02323845540928, 87.02691371312898, 62.434301103617074 
132.9748371159354, 0.06486336535267387, 20.876844782859663, 98.94238259863693, 86.56517865901164, 62.434880540906725 
132.03827490609294, 0.10973119965620129, 20.876844469528315, 99.53797341383071, 86.10217229391218, 62.43554500582238 
131.1020076260109, 0.1603458032150071, 20.876843922769705, 99.91249864595355, 85.63839555051086, 62.436294162468 
130.16606916955664, 0.2166917511221557, 20.876843073056406, 100.12942985502879, 85.17416855856685, 62.43712763245444 
129.2304928021955, 0.27875189892182745, 20.876841843286776, 100.2301152261609, 84.70970946388832, 62.43804499520556 
128.29531109714068, 0.3465073963631171, 20.876840148904442, 100.24261892028727, 84.24517540579886, 62.43904578829829 
127.36055587271937, 0.4199377024188744, 20.87683789802934, 100.18664570318175, 83.78068524261312, 62.44012950783595 
126.42625813105421, 0.4990206015286222, 20.876834991600226, 100.07643034808572, 83.31633284065299, 62.441295608854766 
125.49244799815438, 0.5837322210214556, 20.876831323528535, 99.9225081336687, 82.85219519672137, 62.4425435057623 
124.55915466550493, 0.6740470496720828, 20.87682678086328, 99.73284051350721, 82.38833759243296, 62.44387257280852 
123.62640633323784, 0.7699379573402344, 20.876821243966784, 99.51355389736085, 81.92481697207471, 62.44528214458757 
122.69423015496157, 0.8713762156413815, 20.87681458670114, 99.26943808544858, 81.46168421902773, 62.44677151657111 
121.76265218432076, 0.9783315195943322, 20.876806676624916, 99.00429078885763, 80.99898572796639, 62.44833994567101 
120.83169732335044, 1.0907720101891465, 20.876797375200148, 98.7211609170528, 80.53676451447414, 62.4499866508323 
119.90138927268373, 1.2086642978170605, 20.876786538009007, 98.4225236853423, 80.07506101344607, 62.451710813654714 
118.97175048366451, 1.331973486502369, 20.87677401498021, 98.11040882134566, 79.61391366359922, 62.45351157904228 
118.0428021124107, 1.4606631988748964, 20.876759650624532, 97.78649588920157, 79.15335934213488, 62.45538805588059 
117.11456397586717, 1.594695601820427, 20.876743284279403, 97.4521861608431, 78.69343369258922, 62.4573393177405 
116.18705450987999, 1.7340314327455215, 20.876724750362033, 97.10865749699997, 78.234171375344, 62.459364403607665 
115.26029072931831, 1.8786300263924403, 20.876703878630906, 96.75690674361765, 77.77560626132983, 62.46146231863733 
114.33428819026265, 2.0284493421393694, 20.876680494455197, 96.39778283440046, 77.31777158345264, 62.46363203493299 
113.40906095427262, 2.1834459917207667, 20.876654419091764, 96.03201289153826, 76.86070005617601, 62.46587249234859 
112.48462155474103, 2.343575267302659, 20.876625469969447, 95.6602229929471, 76.40442397084807, 62.468182599312755 
111.56098096533478, 2.5087911698477403, 20.876593460980068, 95.28295483520914, 75.94897527236273, 62.47056123367502 
110.63814857051698, 2.679046437705558, 20.876558202776124, 94.90067920809778, 75.49438562131684, 62.47300724357198 
109.71613213814034, 2.8542925753633983, 20.876519503074302, 94.51380697030451, 75.0406864447967, 62.475519448313456 
108.79493779409455, 3.0344798822943595, 20.876477166964918, 94.12269805069263, 74.58790897817427, 62.47809663928712 
107.87456999898714, 3.2195574818397823, 20.87643099722644, 93.72766887737286, 74.13608429973888, 62.48073758088046 
106.95503152683084, 3.409473350064436, 20.876380794644984, 93.32899854590045, 73.68524335957699, 62.48344101141971 
106.03632344570725, 3.6041743445237713, 20.87632635833814, 92.92693396941223, 73.23541700379994, 62.48620564412411 
105.1184451003713, 3.8036062328842104, 20.876267486082913, 92.52169420152758, 72.78663599498536, 62.48903016807464 
104.20139409675785, 4.007713721338533, 20.8762039746472, 92.11347408304076, 72.33893102951505, 62.491913249196344 
103.28516628834744, 4.216440482760328, 20.876135620124337, 91.70244733273043, 71.89233275235428, 62.49485353125315 
102.36975576434571, 4.429729184542988, 20.876062218270455, 91.28876917875851, 71.44687176970798, 62.49784963685371 
101.45515483962762, 4.64752151607048, 20.87598356484403, 90.87257860846502, 71.00257865990548, 62.50090016846788 
100.54135404639473, 4.869758215769317, 20.875899455947195, 90.45400029966723, 70.55948398279772, 62.50400370945232 
99.62834212749263, 5.096379097692586, 20.875809688368545, 90.0331462849237, 70.11761828789892, 62.50715882508399 
98.71610603133233, 5.327323077589556, 20.87571405992669, 89.61011739093938, 69.67701212146174, 62.51036406360106 
97.80463090835939, 5.562528198415927, 20.875612369814373, 89.18500448784667, 69.23769603264161, 62.513617957249465 
96.89390010901177, 5.801931655242344, 20.87550441894252, 88.75788957709992, 68.7997005788785, 62.51691902333472 
95.98389518310839, 6.045469819520616, 20.87539001028389, 88.32884674186501, 68.36305633060257, 62.52026576527704 
95.07459588060779, 6.293078262669744, 20.875268949215744, 87.89794297983198, 67.92779387535154, 62.52365667366962 
94.16598015367833, 6.544691778945542, 20.87514104386126, 87.4652389351479, 67.49394382137382, 62.52709022733857 
93.25802416001959, 6.800244407560477, 20.875006105429005, 87.03078954351227, 67.06153680077861, 62.530564894402985 
92.3507022673761, 7.059669454022053, 20.87486394855027, 86.59464460228996, 66.63060347228468, 62.534079133335325 
91.44398705918567, 7.322899510660788, 20.874714391613654, 86.15684927568255, 66.20117452361089, 62.53763139401943 
90.53784934130394, 7.5898664763207675, 20.874557257096438, 85.71744454349401, 65.7732806735452, 62.541220118806585 
89.63225814975065, 7.8605015751881115, 20.87439237189251, 85.27646760076904, 65.34695267372254, 62.54484374356789 
88.72718075942215, 8.134735374734921, 20.874219567636146, 84.83395221452963, 64.92222131013757, 62.54850069874181 
87.82258269371869, 8.412497802758391, 20.874038681021393, 84.38992904295137, 64.49911740441429, 62.55218941037636 
86.91842773503555, 8.693718163497042, 20.87384955411661, 83.94442592157542, 64.07767181485059, 62.555908301164514 
86.01467793607088, 8.97832515280793, 20.873652034673658, 83.4974681205216, 63.6579154372536, 62.55965579147224 
85.11129363190425, 9.266246872391207, 20.873445976431434, 83.04907857613271, 63.23987920557883, 62.563430300357695 
84.20823345280425, 9.557410843049869, 20.873231239413293, 82.59927810002573, 62.82359409238409, 62.56723024658127 
83.30545433772534, 9.8517440169752, 20.873007690217936, 82.14808556813679, 62.409091109107344, 62.571054049604946 
82.40291154845778, 10.14917278904982, 20.87277520230344, 81.69551809201455, 61.99640130617627, 62.57490013058051 
81.5005586843987, 10.449623007162502, 20.87253365626405, 81.241591174332, 61.585555772956084, 62.578766913325545 
80.59834769791419, 10.753019981530947, 20.872282940099197, 80.78631885034068, 61.176585637540434, 62.58265282528615 
79.69622891026839, 11.059288493029955, 20.87202294947468, 80.32971381678091, 60.769522066390124, 62.58655629848607 
78.79415102809713, 11.368352800525173, 20.87175358797536, 79.8717875495778, 60.36439626382284, 62.590475770460664 
77.89206116041026, 11.680136647213342, 20.87147476734921, 79.41255041149567, 59.961239471356755, 62.594409685175755 
76.9899048361085, 11.994563265972738, 20.871186407742325, 78.95201175078462, 59.56008296691, 62.59835649392986 
76.08762602200764, 12.311555383728306, 20.87088843792455, 78.49017999173468, 59.16095806385764, 62.60231465623936 
75.18516714136524, 12.63103522483838, 20.870580795505482, 78.02706271794767, 58.763896109947254, 62.60628264070595 
74.28246909291128, 12.952924513511059, 20.87026342714051, 77.56266674904604, 58.368928486073685, 62.61025892586551 
73.3794712703882, 13.27714447526022, 20.869936288726517, 77.09699821145826, 57.976086604913625, 62.61424200101778 
72.47611158261078, 13.603615837412727, 20.8695993455872, 76.63006260384945, 57.58540190941964, 62.61823036703616 
71.5723264740621, 13.932258828679783, 20.869252572647486, 76.16186485770565, 57.196905871173726, 62.622222537157114 
70.66805094604544, 14.262993177807465, 20.868895954596976, 75.69240939352437, 56.810629988599864, 62.626217037748326 
69.76321857841954, 14.595738111322417, 20.8685294860421, 75.2217001730173, 56.426605785034994, 62.63021240905541 
68.85776155194753, 14.93041235039097, 20.868153171646792, 74.7497407476879, 56.044864806657536, 62.63420720592621 
67.95161067129766, 15.266934106810984, 20.867767026261475, 74.27653430410993, 55.66543862027272, 62.638199998512576 
