# MEX_intpoint_lon [deg], MEX_intpoint_lat [deg], MEX_intpoint_angle [deg], TGO_intpoint_lon [deg], TGO_intpoint_lat [deg], TGO_intpoint_angle [deg] 
-139.42853499692893, 19.61713816460638, 21.851164124478377, -27.36001524626054, 39.97502092001904, 62.9219043807254 
-140.31663980003714, 19.210624511843807, 21.851774618391715, -27.616242445626586, 40.388447122838166, 62.91721064363956 
-141.20312042157462, 18.805269171784662, 21.852372689235423, -27.86710543640215, 40.804351928912915, 62.91247882968706 
-142.0880826286531, 18.401166519412513, 21.852958169811348, -28.11249746128609, 41.22267593888774, 62.90771042787555 
-142.97163048670654, 17.998410267802605, 21.853530907973255, -28.352307643968896, 41.64335915911102, 62.902906974202075 
-143.8538663409598, 17.59709349316138, 21.854090766641768, -28.586420766960508, 42.06634096816998, 62.89807005111739 
-144.73489079885726, 17.19730865877543, 21.854637623801022, -28.814717038533797, 42.491560080938584, 62.89320128693439 
-145.61480271330322, 16.7991476378369, 21.855171372477244, -29.037071848167006, 42.9189545100018, 62.888302355181025 
-146.49369916657653, 16.40270173511373, 21.855691920699304, -29.253355509834776, 43.348461524310885, 62.88337497389769 
-147.3716754547939, 16.00806170743569, 21.856199191441284, -29.46343299246134, 43.78001760491197, 62.878420904879825 
-148.24882507280643, 15.61531778296795, 21.856693122547185, -29.66716363681344, 44.21355839757939, 62.87344195286571 
-149.12523969942464, 15.224559679246475, 21.85717366663804, -29.864400858072674, 44.649018662171684, 62.86843996467026 
-150.00100918287757, 14.83587661995012, 21.857640791001316, -30.054991833288593, 45.086332218514734, 62.86341682826494 
-150.87622152642095, 14.449357350386121, 21.858094477463077, -30.238777172875164, 45.5254318886019, 62.85837447180471 
-151.75096287401905, 14.06509015166704, 21.85853472224294, -30.415590575273182, 45.96624943488443, 62.85331486260261 
-152.62531749603443, 13.683162853557892, 21.858961535792066, -30.585258463862743, 46.40871549440921, 62.848240006052094 
-153.49936777486766, 13.303662845974275, 21.859374942614462, -30.74759960516997, 46.852759508541645, 62.84315194449888 
-154.37319419049913, 12.926677089112381, 21.859774981071798, -30.902424707375097, 47.29830964799271, 62.83805275606211 
-155.24687530589233, 12.552292122193926, 21.86016170317212, -31.049535998092043, 47.745292732847034, 62.832944553406236 
-156.1204877522269, 12.180594070809372, 21.860535174342623, -31.188726780356184, 48.19363414726757, 62.827829482464374 
-156.99410621393704, 11.811668652844503, 21.860895473186904, -31.31978096572643, 48.64325774852668, 62.822709721114286 
-157.86780341354003, 11.445601182976123, 21.86124269122696, -31.44247258338181, 49.0940857699892, 62.81758747780753 
-158.74165009624474, 11.082476575724236, 21.861576932630406, -31.556565264073523, 49.54603871764408, 62.81246499015368 
-159.61571501434037, 10.722379347048921, 21.861898313923113, -31.661811697780937, 49.999035259752965, 62.807344523459776 
-160.49006491137064, 10.365393614481679, 21.86220696368777, -31.7579530639185, 50.45299210915197, 62.80222836922717 
-161.36476450610652, 10.011603095782153, 21.86250302224876, -31.844718432950323, 50.90782389771019, 62.797118843606164 
-162.2398764763378, 9.661091106112606, 21.862786641343796, -31.921824138295325, 51.36344304241364, 62.7920182858105 
-163.11546144250957, 9.313940553724123, 21.86305798378267, -31.98897311744927, 51.819759602505556, 62.78692905649259 
-163.99157795123782, 8.970233934149741, 21.86331722309364, -32.04585422131763, 52.27668112707597, 62.7818535360811 
-164.86828245874244, 8.630053322901828, 21.863564543157953, -32.0921414908475, 52.734112492452084, 62.77679412308231 
-165.74562931424492, 8.293480366672291, 21.86380013783289, -32.12749340017468, 53.19195572869896, 62.77175323234678 
-166.6236707433813, 7.960596273036505, 21.864024210563933, -32.15155206566978, 53.65010983449549, 62.76673329330306 
-167.50245683168924, 7.631481798663359, 21.864236973986518, -32.16394242048319, 54.10847057960648, 62.76173674815986 
-168.38203550823184, 7.306217236036325, 21.864438649517865, -32.16427135446041, 54.566930294124, 62.75676605007842 
-169.26245252942763, 6.984882398692353, 21.86462946693952, -32.1521268196407, 55.02537764360627, 62.75182366131708 
-170.1437514631606, 6.66755660498772, 21.864809663971037, -32.1270769019704, 55.48369738919508, 62.74691205134946 
-171.02597367324992, 6.354318660402499, 21.8649794858355, -32.08866886037851, 55.94177013174808, 62.74203369495821 
-171.9091583043624, 6.045246838397845, 21.865139184817284, -32.036428134986224, 56.39947203897897, 62.73719107030646 
-172.79334226745758, 5.740418859842841, 21.86528901981283, -31.96985732697903, 56.85667455455985, 62.73238665698857 
-173.67856022585696, 5.43991187103038, 21.865429255874833, -31.888435153577646, 57.313244088104874, 62.72762293406212 
-174.56484458203488, 5.143802420304816, 21.865560163750565, -31.79161538262984, 57.76904168492794, 62.72290237806361 
-175.45222546523107, 4.852166433326521, 21.86568201941491, -31.678825752637948, 58.22392267444969, 62.718227461009306 
-176.34073071998822, 4.565079187002126, 21.865795103598696, -31.549466885567448, 58.677736296124635, 62.71360064838373 
-177.23038589572215, 4.282615282112122, 21.86589970131297, -31.402911201589205, 59.13032530177158, 62.7090243971178 
-178.12121423743199, 4.004848614670824, 21.865996101369774, -31.238501847031557, 59.58152553322409, 62.70450115355869 
-179.01323667766312, 3.731852346057127, 21.8660845959002, -31.055551649303762, 60.03116547427754, 62.70003335143354 
-179.9064718298348, 3.463698871957947, 21.866165479870165, -30.85334211545011, 60.47906577600285, 62.69562340980968 
179.1990640169536, 3.20045979016966, 21.866239050594636, -30.631122494357015, 60.92503875463093, 62.69127373105276 
178.30335690152214, 2.9422058673063383, 21.866305607251004, -30.388108926521188, 61.36888786139653, 62.68698669878592 
177.40639519250175, 2.6890070044674985, 21.866365450392053, -30.12348370975621, 61.810407123974336, 62.6827646758515 
176.50816958840218, 2.4409322019211697, 21.866418881459413, -29.83639471432501, 62.249380559459354, 62.67861000227843 
175.6086731157429, 2.1980495228622567, 21.866466202297914, -29.52595498679879, 62.685581559248725, 62.67452499325651 
174.70790112513478, 1.9604260563092324, 21.86650771467156, -29.191242588507222, 63.11877224669272, 62.670511937121056 
173.80585128520218, 1.7281278792062766, 21.866543719781813, -28.83130072180729, 63.54870280901511, 62.66657309334933 
172.90252357423776, 1.5012200178010393, 21.866574517788724, -28.44513820557839, 63.97511080578053, 62.662710690571394 
171.99792026948535, 1.2797664083720106, 21.866600407335618, -28.031730370353134, 64.39772045712974, 62.65892692459807 
171.0920459339512, 1.0638298573826708, 21.866621685077856, -27.590020453275866, 64.81624191613992, 62.65522395646764 
170.18490740064613, 0.8534720011427938, 21.866638645216423, -27.11892158355355, 65.23037053102144, 62.651603910514055 
169.27651375416906, 0.6487532650606366, 21.866651579036848, -26.61731946007068, 65.63978610446263, 62.648068872459014 
168.36687630954592, 0.4497328225724585, 21.8666607744541, -26.08407583412879, 66.04415215930702, 62.644620887529925 
167.45600858824514, 0.25646855383876177, 21.866666515564088, -25.518032921479147, 66.44311522191674, 62.64126195860607 
166.54392629129853, 0.06901700429925083, 21.866669082202254, -24.918018878435653, 66.8363041370622, 62.637994044395626 
165.6306472694623, -0.11256665681924559, 21.866668749510016, -24.282854486200332, 67.22332943099326, 62.63481905764509 
164.71619149036286, -0.2882286779453396, 21.866665787509422, -23.611361194714878, 67.60378274249112, 62.631738863384115 
163.8005810025802, -0.45791676645777946, 21.866660460686727, -22.902370681240342, 67.97723634515559, 62.62875527720718 
162.88383989662975, -0.6215801297323318, 21.866653027585397, -22.154736078069206, 68.34324278791033, 62.62587006359492 
161.96599426281546, -0.7791695158396135, 21.86664374040906, -21.36734501662138, 68.70133468463504, 62.62308493427649 
161.04707214593495, -0.9306372537916509, 21.86663284463491, -20.5391346197276, 69.05102468785041, 62.62040154663595 
160.1271034968298, -1.0759372932342095, 21.866620578638212, -19.66910854798521, 69.39180568532787, 62.61782150216378 
159.20612012078408, -1.215025243481852, 21.8666071733281, -18.756356167353527, 69.72315126215707, 62.615346344956144 
158.28415562278568, -1.3478584117925891, 21.866592851795556, -17.80007385129021, 70.04451647389818, 62.61297756026349 
157.36124534967655, -1.4743958407795275, 21.86657782897369, -16.799588359554118, 70.35533897862318, 62.610716573090464 
156.4374263292304, -1.594598344857756, 21.86656231131095, -15.754382145630801, 70.65504057649301, 62.60856474684912 
155.51273720620654, -1.7084285456259511, 21.86654649645764, -14.66412033473814, 70.94302920454082, 62.60652338206669 
154.5872181754424, -1.8158509060838677, 21.866530572966134, -13.528678985018736, 71.21870143101373, 62.604593715150344 
153.6609109120583, -1.916831763588937, 21.86651472000533, -12.348174098115031, 71.48144548742415, 62.6027769172097 
152.73385849885938, -2.0113393614575945, 21.86649910708944, -11.122990686489935, 71.7306448668709, 62.601074092939506 
151.80610535103227, -2.0993438791199686, 21.866483893821783, -9.853811041027711, 71.9656825037954, 62.599486279563074 
150.87769713824542, -2.1808174607397355, 21.86646922965374, -8.541641184127283, 72.1859455328974, 62.59801444583884 
149.94868070427233, -2.25573424221465, 21.866455253659222, -7.187834354229975, 72.39083060346292, 62.596659491130346 
149.01910398426878, -2.3240703764773496, 21.866442094324935, -5.7941102636309125, 72.5797497002174, 62.595422244541844 
148.08901591984497, -2.3858040570204815, 21.866429869356832, -4.36256882019272, 72.75213639379773, 62.59430346411989 
147.15846637208375, -2.4409155395748052, 21.866418685502808, -2.8956970228108654, 72.90745241429806, 62.593303836122566 
146.22750603266476, -2.489387161874441, 21.866408638392155, -1.3963678454668855, 73.04519441182882, 62.59242397435693 
145.2961863332638, -2.531203361448426, 21.86639981239157, 0.13216987417399667, 73.16490074078294, 62.59166441958586 
144.36455935340405, -2.5663506913837986, 21.86639228047845, 1.686311225644418, 73.26615808196239, 62.59102563900487 
143.43267772694333, -2.5948178340113692, 21.866386104131145, 3.2621249882542216, 73.34860770136322, 62.5905080257897 
142.50059454738758, -2.6165956124715017, 21.8663813332366, 4.8553931923264715, 73.41195113851985, 62.59011189871543 
141.568363272227, -2.631677000123781, 21.866378006015463, 6.461659796750369, 73.45595512260573, 62.589837501847335 
140.63603762649473, -2.640057127771091, 21.866376148964626, 8.07628728576473, 73.48045553188868, 62.58968500430413 
139.70367150575314, -2.641733288675391, 21.866375776817492, 9.694519511743394, 73.48536024150405, 62.58965450009387 
138.77131887871386, -2.6367049413493637, 21.866376892521863, 11.311548717589135, 73.47065074453114, 62.5897460080228 
137.83903368970113, -2.624973710115218, 21.866379487235474, 12.922584401027404, 73.43638247961267, 62.589959471676885 
136.90686976116714, -2.606543383428788, 21.8663835403393, 14.522921561502825, 73.38268385151322, 62.59029475947677 
135.9748806964693, -2.581419909974273, 21.866389019468496, 16.108005911273576, 73.30975398517585, 62.59075166480544 
135.04311978311708, -2.5496113925419226, 21.866395880561004, 17.673493831363732, 73.21785930500312, 62.591329906208536 
134.11163989669387, -2.5111280797078845, 21.866404067923703, 19.215305189563352, 73.10732907559344, 62.59202912766756 
133.18049340565716, -2.4659823553423834, 21.8664135143161, 20.729667577660283, 72.97855007509315, 62.592848898944766 
132.24973207721465, -2.4141887259789963, 21.866424141051358, 22.21315102619171, 72.8319605957977, 62.59378871599995 
131.3194069844702, -2.355763806084538, 21.866435858114563, 23.66269277229756, 72.66804397793167, 62.594848001478354 
130.3895684150263, -2.290726301275218, 21.866448564298086, 25.075612147854837, 72.48732188206513, 62.59602610526897 
129.4602657812245, -2.21909698953102, 21.866462147353875, 26.44961608661049, 72.29034749473915, 62.59732230513232 
128.53154753219582, -2.1408987004661295, 21.86647648416243, 27.782796096517682, 72.0776988426222, 62.59873580739743 
127.60346106788644, -2.056156292718679, 21.86649144091821, 29.073617794277066, 71.84997236531196, 62.60026574772641 
126.6760526552142, -1.964896629528631, 21.866506873331367, 30.32090425125519, 71.60777686822706, 62.60191119194616 
125.74936734650194, -1.8671485525772815, 21.86652262684539, 31.523814460393886, 71.35172794720934, 62.6036711369455 
124.82344890032343, -1.7629428541667906, 21.866538536870415, 32.681818215609205, 71.08244294744144, 62.60554451163724 
123.89833970488756, -1.652312247822082, 21.86655442903193, 33.794668615266616, 70.80053649257646, 62.60753017798336 
122.97408070407495, -1.535291337401609, 21.866570119434485, 34.86237327749355, 70.50661659660112, 62.60962693208194 
122.05071132622983, -1.411916584806773, 21.86658541494015, 35.88516520442193, 70.20128135147536, 62.61183350531495 
121.12826941579857, -1.2822262763829244, 21.866600113461203, 36.86347406987044, 69.88511616819028, 62.61414856555477 
120.20679116789458, -1.1462604881075926, 21.86661400426685, 37.797898542528905, 69.55869153743572, 62.616570718428065 
119.28631106585713, -1.0040610496637565, 21.866626868303385, 38.68918010333986, 69.22256126823297, 62.619098508635574 
118.36686182185967, -0.8556715074979026, 21.866638478527474, 39.538178677470704, 68.87726115819378, 62.621730421325694 
117.4484743206118, -0.7011370869641379, 21.866648600252162, 40.34585028143437, 68.52330804698852, 62.62446488352059 
116.53117756618651, -0.5405046536564596, 21.866656991504986, 41.11322678586621, 68.16119920460176, 62.62730026559238 
115.61499863199357, -0.37382267403212727, 21.866663403397876, 41.8413978139596, 67.79141200752078, 62.63023488278797 
114.6999626139075, -0.2011411754293895, 21.8666675805083, 42.531494733289925, 67.4144038586856, 62.63326699680048 
113.78609258654822, -0.022511705582405627, 21.866669261271145, 43.18467665275268, 67.03061231044667, 62.63639481738509 
112.8734095627016, 0.16201270826379677, 21.86666817838076, 43.8021183043192, 66.64045535361034, 62.63961650401731 
111.96193245585619, 0.352377600536685, 21.86666405920281, 44.384999668914695, 66.24433183965726, 62.642930167591956 
111.051678045823, 0.5485271087173138, 21.866656626195162, 44.93449719468114, 65.8426220072069, 62.64633387216 
110.14266094739568, 0.7504040148197733, 21.866645597337428, 45.451776452138006, 65.4356880876399, 62.649825636701834 
109.23489358199876, 0.9579497868716909, 21.866630686568563, 45.93798607249131, 65.02387496838853, 62.65340343693425 
108.32838615226454, 1.1711046203002893, 21.866611604231807, 46.39425282103224, 64.60751089570823, 62.657065207149174 
107.42314661946956, 1.389807479130856, 21.866588057526638, 46.821677665956926, 64.18690820172436, 62.660808842081835 
106.51918068375619, 1.6139961369068547, 21.866559750966896, 47.22133271301676, 63.76236404319758, 62.664632198806096 
105.61649176705635, 1.8436072172438625, 21.86652638684462, 47.59425888739697, 63.33416114177736, 62.66853309865449 
104.7150809986302, 2.0785762339320333, 21.86648766569896, 47.94146425552297, 62.902568517531364, 62.67250932916123 
103.8149472031252, 2.3188376305052643, 21.866443286789483, 48.26392289067953, 62.467842209271524, 62.676558646024986 
102.9160868910579, 2.564324819198038, 21.86639294857343, 48.56257419709275, 62.030225976671474, 62.68067877508993 
102.01849425161575, 2.8149702192144748, 21.866336349185993, 48.83832261726782, 61.58995198041222, 62.68486741434221 
101.12216114767239, 3.070705294237528, 21.86627318692334, 49.0920376567747, 61.147241437628885, 62.689122235919875 
100.22707711290809, 3.3314605891095677, 21.86620316072747, 49.32455416926786, 60.70230525078919, 62.693440888133566 
99.33322935092322, 3.5971657656193825, 21.86612597067244, 49.53667285229518, 60.25534460883628, 62.69782099749608 
98.44060273623226, 3.867749637333958, 21.866041318451202, 49.72916091141057, 59.80655155999762, 62.702260170757974 
97.5491798170236, 4.143140203417337, 21.865948907862528, 49.90275285628739, 59.35610955611707, 62.70675599694762 
96.65894081957066, 4.423264681382037, 21.865848445297264, 50.058151397984325, 58.90419396872813, 62.71130604941259 
95.76986365417909, 4.70804953872259, 21.865739640223453, 50.19602842129748, 58.45097257736558, 62.71590788786085 
94.88192392255596, 4.997420523383809, 21.865622205669446, 50.31702601030262, 57.996606030826186, 62.72055906039928 
93.99509492648689, 5.291302693020515, 21.865495858704627, 50.42175750880842, 57.541248282246855, 62.725257105566776 
93.10934767770983, 5.589620443008279, 21.8653603209169, 50.51080860056518, 57.08504699898206, 62.729999554360795 
92.22465090887476, 5.892297533168696, 21.86521531888651, 50.584738396758205, 56.62814394833681, 62.7347839322543 
91.34097108548154, 6.199257113175799, 21.86506058465542, 50.64408052061395, 56.170675360258834, 62.7396077612012 
90.45827241869115, 6.510421746613231, 21.864895856191712, 50.68934418090698, 55.712772268115096, 62.744468561628466 
89.57651687890775, 6.825713433655582, 21.864720877848402, 50.72101522781927, 55.25456082868121, 62.74936385441246 
88.69566421003363, 7.145053632349541, 21.864535400816013, 50.739557186011766, 54.79616262246164, 62.75429116283794 
87.81567194430154, 7.468363278474198, 21.864339183568422, 50.74541226095237, 54.337694935435245, 62.759248014536944 
86.9364954175946, 7.795562803962024, 21.864131992301274, 50.73900231553901, 53.87927102329078, 62.764231943406806 
86.05808778516636, 8.126572153865386, 21.863913601362437, 50.72072981488467, 53.42100035917861, 62.76924049150408 
85.1804000376807, 8.46131080185538, 21.863683793673957, 50.6909787378203, 52.96298886596513, 62.774271210913504 
84.30338101749363, 8.799697764242945, 21.863442361144983, 50.65011545423855, 52.505339133930455, 62.7793216655899 
83.4269774351062, 9.141651612513993, 21.863189105074962, 50.598489567867155, 52.04815062480565, 62.78438943317084 
82.55113388572214, 9.48709048437284, 21.862923836546848, 50.53643472443891, 51.59151986299842, 62.7894721067592 
81.67579286584923, 9.835932093290403, 21.862646376809455, 50.46426938553033, 51.13554061480998, 62.79456729667294 
80.80089478989026, 10.18809373655531, 21.862356557648805, 50.38229756858364, 50.68030405640067, 62.799672632161474 
79.9263780066739, 10.54349230182846, 21.862054221747716, 50.290809553817546, 50.225898931216165, 62.80478576308617 
79.05217881588337, 10.902044272202781, 21.861739223033283, 50.19008255887925, 49.7724116975442, 62.809904361564335 
78.17823148434601, 11.26366572977235, 21.861411427011724, 50.080381382200194, 49.319926666828955, 62.81502612357447 
77.3044682621542, 11.628272357715801, 21.861070711090214, 49.961959016098916, 48.86852613333112, 62.820148770521776 
76.43081939859378, 11.995779440901346, 21.860716964885224, 49.835057230728516, 48.41829049568353, 62.82527005076273 
75.55721315786403, 12.366101865021408, 21.860350090516913, 49.69990713000145, 47.96929837085601, 62.83038774108695 
74.68357583457913, 12.739154114266707, 21.859970002889305, 49.556729680641176, 47.521626701009446, 62.835499648155604 
73.80983176904907, 13.11485026755085, 21.859576629955694, 49.40573621551448, 47.07535085368617, 62.84060360989476 
72.93590336234479, 13.493103993297433, 21.859169912969076, 49.24712891239077, 46.63054471575435, 62.845697496843066 
72.06171109115975, 13.87382854280339, 21.858749806717196, 49.08110124925875, 46.18728078149485, 62.85077921345218 
71.18717352248838, 14.256936742192897, 21.85831627974179, 48.90783843730776, 45.74563023519281, 62.85584669933924 
70.31220732814901, 14.64234098297784, 21.857869314541894, 48.72751783265306, 45.305663028570784, 62.86089793049041 
