# MEX_intpoint_lon [deg], MEX_intpoint_lat [deg], MEX_intpoint_angle [deg], TGO_intpoint_lon [deg], TGO_intpoint_lat [deg], TGO_intpoint_angle [deg] 
-138.78546352233633, 19.463730555255164, 21.413731557594367, -27.723271705524184, 45.22676519294714, 62.80976897790218 
-139.6878761542975, 19.08079059241513, 21.414290679387943, -28.063486115951886, 45.619927201091386, 62.80527201768679 
-140.5886695134151, 18.69887880588515, 21.414838988942186, -28.39968765839135, 46.01579240057683, 62.80074657402381 
-141.48793959890799, 18.31808728350485, 21.41537633226096, -28.73179433673709, 46.414315867510346, 62.79619406367684 
-142.3857810054135, 17.938507465112504, 21.4159025684461, -29.0597206490815, 46.81545240998105, 62.791615938834894 
-143.28228689566308, 17.560230161789086, 21.416417569712827, -29.383377370247796, 47.21915655352405, 62.78701368661551 
-144.17754897445576, 17.183345574280033, 21.41692122138933, -29.70267132100767, 47.62538252510382, 62.78238882852515 
-145.07165746379536, 16.807943310556464, 21.417413421900548, -30.017505122994844, 48.034084235525484, 62.7777429198774 
-145.96470107906754, 16.434112402479307, 21.417894082736304, -30.327776938242696, 48.445215260174834, 62.77307754916874 
-146.85676700614098, 16.06194132153232, 21.418363128403723, -30.63338019218224, 48.8587288179777, 62.7683943374122 
-147.7479408792865, 15.691517993591663, 21.418820496364166, -30.93420327883802, 49.27457774846033, 62.76369493742998 
-148.63830675981632, 15.322929812701807, 21.419266136954764, -31.230129246849877, 49.692714486780545, 62.75898103310434 
-149.52794711535378, 14.9562636538292, 21.41970001329461, -31.52103546483011, 50.113091036587505, 62.75425433858799 
-150.4169427996536, 14.5916058845668, 21.420122101175863, -31.806793264435175, 50.5356589405546, 62.74951659747418 
-151.30537303289802, 14.229042375764381, 21.420532388939957, -32.08726755938829, 50.96036924841441, 62.74476958192705 
-152.1933153824054, 13.868658511060824, 21.420930877338932, -32.36231643853364, 51.387172482309445, 62.740015091772804 
-153.08084574369303, 13.510539195296422, 21.421317579382336, -32.63179073083142, 51.81601859925239, 62.73525495355226 
-153.9680383218444, 13.154768861784374, 21.4216925201697, -32.89553354001563, 52.24685695047164, 62.73049101953558 
-154.8549656131385, 12.801431478422549, 21.42205573670905, -33.15337974643032, 52.67963623739345, 62.72572516669998 
-155.74169838690557, 12.450610552627403, 21.42240727772145, -33.405155473335014, 53.114304463989065, 62.72095929567064 
-156.62830566758157, 12.102389135074135, 21.422747203432177, -33.6506775147215, 53.550808885186726, 62.716195329626466 
-157.51485471693871, 11.756849822227844, 21.42307558534849, -33.88975272141217, 53.98909595101869, 62.71143521317083 
-158.401411016478, 11.414074757652527, 21.423392506024538, -34.12217734191153, 54.42911124613931, 62.70668091116829 
-159.28803824997527, 11.074145632085742, 21.423698058813688, -34.347736314153984, 54.8707994243129, 62.701934407548904 
-160.17479828617843, 10.737143682268565, 21.42399234760845, -34.56620250393001, 55.3141041374286, 62.69719770407991 
-161.06175116165983, 10.403149688521932, 21.42427548656864, -34.77733588537676, 55.75896795855223, 62.6924728191072 
-161.94895506383492, 10.072243971061821, 21.424547599837855, -34.980882658483694, 56.20533229847471, 62.68776178626615 
-162.83646631416175, 9.74450638504772, 21.424808821248863, -35.17657429808503, 56.653137315157466, 62.683066653164516 
-163.7243393515444, 9.420016314360137, 21.425059294018226, -35.3641265282858, 57.102321815412225, 62.678389480036955 
-164.61262671596677, 9.098852664104964, 21.425299170430463, -35.54323821569135, 57.552823148079206, 62.67373233837368 
-165.50137903238985, 8.781093851843949, 21.425528611512437, -35.71359017417742, 58.00457708788907, 62.66909730952368 
-166.39064499494984, 8.46681779755287, 21.42574778669803, -35.874843873244025, 58.457517709102206, 62.66448648327398 
-167.28047135150072, 8.156101912310389, 21.42595687348398, -36.02664004123737, 58.91157724791995, 62.65990195640644 
-168.17090288854808, 7.849023085723125, 21.426156057076955, -36.16859715389236, 59.36668595254818, 62.65534583123306 
-169.06198241662716, 7.545657672094209, 21.426345530032563, -36.30030979774173, 59.82277191966825, 62.650820214111576 
-169.95375075618145, 7.246081475344854, 21.4265254918867, -36.42134689694999, 60.279760915928115, 62.64632721394241 
-170.84624672400318, 6.950369732700783, 21.426696148779698, -36.53124979105475, 60.73757618290727, 62.641868940648656 
-171.73950712029955, 6.658597097157723, 21.426857713073865, -36.62953014993597, 61.19613822383093, 62.63744750364046 
-172.63356671645474, 6.370837618742417, 21.42701040296477, -36.71566771107696, 61.65536457010774, 62.63306501026513 
-173.52845824355802, 6.087164724588145, 21.427154442086962, -36.789107822832804, 62.11516952554119, 62.62872356424514 
-174.42421238177437, 5.807651197846552, 21.42729005911451, -36.84925877598282, 62.57546388581014, 62.624425264104715 
-175.3208577506348, 5.53236915545971, 21.42741748735688, -36.89548890431919, 63.03615463053184, 62.62017220158719 
-176.21842090032706, 5.261390024819546, 21.42753696435084, -36.927123433426644, 63.49714458489976, 62.615966460064605 
-177.11692630406972, 4.994784519344188, 21.427648731448723, -36.943441055153144, 63.958332047531826, 62.6118101129412 
-178.01639635165364, 4.732622613003675, 21.427753033403775, -36.94367020359013, 64.41961038076244, 62.60770522205216 
-178.91685134423764, 4.474973513830304, 21.427850117952925, -36.92698500671081, 64.88086755916184, 62.603653836059806 
-179.81830949048467, 4.221905636451913, 21.427940235397774, -36.89250088621448, 65.34198567156325, 62.59965798884861 
179.27921309587273, 3.973486573689078, 21.428023638184136, -36.839269776674165, 65.80284037131581, 62.5957196979207 
178.37570239694992, 3.729783067260176, 21.428100580480795, -36.766274933893264, 66.26330026885691, 62.59184096279354 
177.47114649002242, 3.490860977641534, 21.428171317757997, -36.672425301590756, 66.72322626000114, 62.588023763401985 
176.56553554514514, 3.2567852531321555, 21.42823610636627, -36.55654940535346, 67.18247078257708, 62.584270058505744 
175.65886182099229, 3.027619898176208, 21.428295203116036, -36.41738874347909, 67.64087699319775, 62.580581784104595 
174.75111965883264, 2.8034279409986245, 21.428348864858652, -36.25359064623027, 68.09827785502944, 62.57696085186263 
173.84230547455684, 2.584271400612522, 21.428397348069467, -36.06370057858301, 68.55449512642542, 62.573409147543735 
172.9324177486764, 2.370211253259624, 21.428440908433206, -35.84615386736851, 69.0093382392237, 62.56992852945968 
172.02145701421605, 2.1613073983476934, 21.42847980043259, -35.599266842541645, 69.46260305438358, 62.566520826932695 
171.10942584242557, 1.9576186239516142, 21.42851427694042, -35.32122739514136, 69.91407048147602, 62.56318783877454 
170.19632882623952, 1.759202571947117, 21.428544588815765, -35.010084972594115, 70.3635049473843, 62.5599313317832 
169.28217256141988, 1.5661157028487085, 21.428570984504955, -34.66374005694555, 70.81065269846546, 62.55675303925957 
168.36696562531938, 1.3784132604255601, 21.4285937096475, -34.27993320539615, 71.25523991944857, 62.55365465954553 
167.45071855320967, 1.1961492361710357, 21.428613006687932, -33.856233777672514, 71.69697065161387, 62.550637854585 
166.53344381212455, 1.0193763337037627, 21.428629114493738, -33.3900285343869, 72.13552449246215, 62.5477042485101 
165.6151557721732, 0.8481459331795796, 21.42864226797995, -32.87851036839578, 72.57055405936019, 62.544855426253434 
164.69587067528775, 0.6825080557953666, 21.42865269774109, -32.31866753178558, 73.00168220082595, 62.54209293218872 
163.775606601373, 0.5225113284671158, 21.42866062969065, -31.70727384976923, 73.4284989415831, 62.539418268801235 
162.85438343183736, 0.368202948765607, 21.428666284708804, -31.040880575455486, 73.85055815177913, 62.53683289538929 
161.93222281048884, 0.21962865019377056, 21.428669878298713, -30.315810742610925, 74.26737393748547, 62.53433822679884 
161.00914810178958, 0.07683266789065199, 21.428671620251958, -29.52815712363586, 74.6784167596235, 62.531935632192415 
160.08518434647127, -0.060142295153028616, 21.428671714323436, -28.67378520261748, 75.08310930283596, 62.52962643385399 
159.16035821452076, -0.19125510128266834, 21.42867035791619, -27.748342931790237, 75.48082213581907, 62.5274119060311 
158.23469795555593, -0.31646621068609593, 21.428667741776703, -26.747279452713954, 75.87086923173304, 62.525293273815926 
157.3082333466199, -0.4357377131342328, 21.42866404970081, -25.665875421665138, 76.25250345316543, 62.52327171206627 
156.3809956374309, -0.5490333588727547, 21.428659458250937, -24.499288060026657, 76.62491215242439, 62.52134834436823 
155.45301749313555, -0.656318588582671, 21.428654136484695, -23.24261451356406, 76.98721309618197, 62.51952424204158 
154.52433293462, -0.7575605623291902, 21.428648245695484, -21.89097748103446, 77.33845099457712, 62.51780042318894 
153.59497727644623, -0.8527281874201731, 21.428641939165257, -20.43963725847347, 77.67759499851817, 62.516177851790495 
152.66498706248683, -0.9417921450974525, 21.428635361929906, -18.884134193167668, 78.00353762270552, 62.5146574368446 
151.73439999934232, -1.0247249159870548, 21.428628650557442, -17.220464856351448, 78.31509565018688, 62.51324003155618 
150.80325488763347, -1.1015008042367487, 21.428621932939393, -15.445293791465366, 78.61101366682679, 62.51192643257312 
149.8715915512698, -1.1720959602728258, 21.42861532809561, -13.556200225054189, 78.88997094476666, 62.51071737927236 
148.93945076480364, -1.2364884021110851, 21.42860894599279, -11.55195542556007, 79.15059241988949, 62.509613553096 
148.00687417898692, -1.2946580351607906, 21.428602887376893, -9.432821368711256, 79.39146446032136, 62.50861557693877 
147.07390424465638, -1.3465866704643532, 21.42859724361982, -7.200855165965526, 79.61115596836827, 62.507724014587104 
146.1405841350782, -1.3922580413194974, 21.428592096580278, -4.860196861481143, 79.80824506672016, 62.5069393702109 
145.20695766689158, -1.4316578182352537, 21.428587518479375, -2.417311717030698, 79.98135117323744, 62.50626208790873 
144.27306921979573, -1.464773622177782, 21.428583571790835, 0.11884650691949916, 80.12917167421631, 62.5056925513064 
143.33896365513033, -1.4915950360667474, 21.428580309146046, 2.7367856707697134, 80.25052170863871, 62.505231083210525 
142.40468623350475, -1.5121136144881333, 21.42857777325416, 5.422568636095222, 80.34437486573222, 62.50487794531608 
141.47028253163512, -1.5263228915945442, 21.42857599683724, 8.16006877717581, 80.40990200586096, 62.5046333379697 
140.5357983585523, -1.53421838716937, 21.42857500258058, 10.931389434660058, 80.44650508944771, 62.50449739998825 
139.6012796713457, -1.5357976108366127, 21.428574803098286, 13.71742818192009, 80.45384296934435, 62.504470208532986 
138.66677249061163, -1.5310600644038481, 21.42857540091415, 16.498545787156182, 80.43184663249016, 62.50455177903963 
137.73232281577378, -1.5200072423311206, 21.42857678845778, 19.255283324534556, 80.38072233024722, 62.5047420652045 
136.7979765404467, -1.5026426303245046, 21.42857894807613, 21.96906300804157, 80.30094227017905, 62.505040959026225 
135.86377936801088, -1.4789717020584954, 21.428581852060255, 24.62281100749244, 80.19322383563903, 62.50544829090391 
134.9297767275676, -1.4490019140370571, 21.42858546268741, 27.201453063586627, 80.05849941681335, 62.50596382979052 
133.99601369044098, -1.4127426986088112, 21.428589732278244, 29.69225300023865, 79.89787969036735, 62.506587283402304 
133.06253488739102, -1.370205455157153, 21.428594603269286, 32.08498575212152, 79.71261348316126, 62.50731829848302 
132.12938442669886, -1.3214035394917316, 21.428600008300336, 34.371955913913155, 79.50404721511768, 62.50815646112378 
131.19660581328122, -1.266352251472752, 21.42860587031682, 36.54788699882473, 79.27358643907313, 62.509101297136766 
130.26424186898737, -1.2050688209048783, 21.428612102686966, 38.60971430353604, 79.02266132598477, 62.51015227248366 
129.33233465422543, -1.1375723917423284, 21.428618609333576, 40.556315904399945, 78.75269722597558, 62.511308793757024 
128.4009253910605, -1.063884004651592, 21.428625284880244, 42.38821331603035, 78.46509078141568, 62.5125702087151 
127.47005438791929, -0.9840265779826866, 21.42863201481188, 44.1072675791348, 78.16119154478957, 62.51393580686854 
126.53976096603083, -0.8980248872043046, 21.42863867564924, 45.71638971667288, 77.84228868606375, 62.515404820118796 
125.61008338772307, -0.8059055428620102, 21.428645135137312, 47.21927787632143, 77.50960215446158, 62.51697642344715 
124.68105878669057, -0.7076969671227283, 21.428651252447256, 48.62018782373492, 77.1642775623678, 62.518649735653426 
123.75272310033685, -0.6034293689721782, 21.428656878391596, 49.92373908652097, 76.80738405202965, 62.52042382014395 
122.82511100428972, -0.49313471813494864, 21.42866185565253, 51.13475598470362, 76.43991445732148, 62.522297685766944 
121.89825584917669, -0.37684671779019996, 21.42866601902288, 52.25814085310631, 76.06278715690398, 62.524270287695195 
120.97218959974008, -0.25460077615831, 21.428669195659456, 53.298775723654785, 75.67684911215925, 62.5263405283542 
120.04694277636162, -0.12643397703614256, 21.428671205348486, 54.26144834407939, 75.28287968027962, 62.5285072583949 
119.1225443990575, 0.007614950639221431, 21.42867186078274, 55.15079844765563, 74.88159488206485, 62.53076927771005 
118.19902193399527, 0.1475056641169798, 21.428670967850017, 55.97128048543008, 74.47365188148635, 62.53312533649235 
117.27640124257462, 0.2931962389666223, 21.4286683259326, 56.72713946278401, 74.05965349868956, 62.535574136333786 
116.35470653310529, 0.4446432019355111, 21.42866372821722, 57.422397001037574, 73.64015263021562, 62.53811433136398 
115.4339603151056, 0.6018015644456298, 21.428656962015275, 58.06084521832798, 73.21565649109765, 62.54074452942697 
114.5141833562368, 0.7646248566444682, 21.42864780909269, 58.646046461409625, 72.78663062475349, 62.5434632932946 
113.59539464187858, 0.9330651619249838, 21.42863604600912, 59.181337306317204, 72.35350264994845, 62.54626914191478 
112.67761133734388, 1.1070731518296257, 21.428621444466007, 59.66983557619842, 71.91666573111397, 62.54916055169374 
111.76084875272169, 1.2865981212539563, 21.42860377166302, 60.11444940039763, 71.47648177036422, 62.552135957810194 
110.84512031032888, 1.4715880238660857, 21.428582790662407, 60.51788756472115, 71.03328432780998, 62.555193755560055 
109.93043751474497, 1.661989507658937, 21.428558260760834, 60.8826705849101, 70.5873812821698, 62.558332301730196 
109.0168099253953, 1.8577479505538204, 21.428529937868095, 61.21114208022993, 70.1390572469719, 62.56154991599936 
108.10424513164276, 2.05880749597493, 21.428497574892393, 61.5054801380134, 69.68857575940602, 62.56484488236482 
107.19274873034018, 2.2651110883162597, 21.428460922131453, 61.76770844862029, 69.23618125957026, 62.56821545059299 
106.28232430579057, 2.4766005082240277, 21.428419727669127, 61.99970705849824, 68.7821008777978, 62.57165983769234 
105.37297341205628, 2.6932164076199525, 21.428373737776933, 62.203222640990994, 68.32654604719204, 62.5751762294068 
104.46469555755357, 2.9148983443925944, 21.428322697319906, 62.37987822366438, 67.86971395762951, 62.578762781728145 
103.55748819186348, 3.1415848166866223, 21.428266350166382, 62.53118234000297, 67.41178886643785, 62.58241762242548 
102.65134669468722, 3.373213296722042, 21.428204439601032, 62.658537594616604, 66.95294327981588, 62.58613885258998 
101.74626436686918, 3.6097202640780774, 21.42813670874069, 62.76324864637877, 66.49333901789888, 62.58992454819339 
100.84223242340852, 3.851041238379195, 21.428062900952433, 62.84652962461341, 66.03312817522516, 62.5937727616584 
99.93923998837725, 4.097110811323156, 21.427982760273252, 62.909511000663926, 65.57245398726401, 62.597681523439114 
99.03727409166052, 4.347862677994215, 21.42789603183094, 62.95324594178394, 65.11145161262955, 62.601648843609894 
98.13631966743337, 4.603229667407074, 21.42780246226553, 62.97871617695476, 64.65024883964573, 62.605672713460905 
97.23635955428642, 4.863143772230382, 21.427701800150693, 62.986837405476166, 64.18896672504414, 62.60975110709842 
96.33737449691316, 5.127536177641193, 21.427593796414666, 62.9784642793919, 63.72772017177141, 62.61388198304837 
95.43934314926987, 5.396337289265163, 21.4274782047601, 62.954394990298645, 63.266618452151235, 62.61806328586138 
94.54224207912092, 5.669476760159585, 21.427354782082197, 62.915375490078006, 62.80576568198764, 62.622292947717426 
93.64604577388084, 5.946883516800036, 21.427223288884754, 62.86210337375334, 62.345261250601936, 62.626568890028445 
92.75072664766734, 6.228485784033517, 21.42708348969338, 62.79523145113631, 61.88520021126506, 62.6308890250376 
91.85625504947936, 6.514211108964469, 21.426935153465536, 62.71537103228446, 61.42567363600968, 62.63525125741262 
90.96259927241667, 6.803986383742587, 21.426778053996713, 62.623094950108886, 60.96676893838265, 62.63965348583301 
90.06972556385949, 7.0977378672240174, 21.42661197032219, 62.51894034179958, 60.50857016731819, 62.644093604567836 
89.17759813652849, 7.395391205480611, 21.426436687114087, 62.40341120910609, 60.05115827497436, 62.64856950504375 
88.28617918034908, 7.696871451134097, 21.426251995072874, 62.27698077594942, 59.59461136107473, 62.65307907740138 
87.39542887504604, 8.002103081495168, 21.426057691313037, 62.14009366035782, 59.13900489602815, 62.65762021203787 
86.50530540339845, 8.311010015489337, 21.425853579742277, 61.99316787632518, 58.68441192486173, 62.662190801135225 
85.61576496508802, 8.623515629354634, 21.425639471433843, 61.83659667988816, 58.230903253788725, 62.66678874017177 
84.72676179107829, 8.9395427710978, 21.425415184991415, 61.67075027250945, 57.778547621044765, 62.67141192941626 
83.83824815846519, 9.259013773698587, 21.425180546906084, 61.49597737373519, 57.327411853456255, 62.67605827540248 
82.95017440574536, 9.581850467053593, 21.424935391905002, 61.31260667406461, 56.87756101005567, 62.68072569238334 
82.06248894845142, 9.907974188653204, 21.424679563291168, 61.12094817802252, 56.42905851392376, 62.6854121037632 
81.17513829510918, 10.237305792987677, 21.424412913273922, 60.92129444655673, 55.98196627331968, 62.69011544350652 
80.28806706347675, 10.569765659679636, 21.42413530328979, 60.71392174708859, 55.53634479305362, 62.694833657522324 
79.40121799702945, 10.90527370034306, 21.42384660431308, 60.49909111881832, 55.09225327696104, 62.69956470502254 
78.51453198166166, 11.243749364169828, 21.423546697155913, 60.27704936022422, 54.64974972225298, 62.704306559853684 
77.62794806257975, 11.585111642247332, 21.423235472757423, 60.04802994509093, 54.208891006440254, 62.70905721179986 
76.74140346136866, 11.929279070611804, 21.422912832461417, 59.812253872851436, 53.76973296746244, 62.71381466785703 
75.8548335932176, 12.276169732044258, 21.422578688282414, 59.569930458525405, 53.332330477589956, 62.71857695347634 
74.96817208429869, 12.625701256616887, 21.4222329631595, 59.32125806708131, 52.89673751161476, 62.723342113776354 
74.08135078929715, 12.977790820999845, 21.421875591197843, 59.066424796632845, 52.46300720979464, 62.728108214722624 
73.19429980909808, 13.332355146539594, 21.42150651789731, 58.80560911450312, 52.03119193597287, 62.732873344274154 
72.30694750864187, 13.689310496121461, 21.421125700368076, 58.538980449845326, 51.60134333125555, 62.73763561349512 
71.41922053496577, 14.048572669830696, 21.420733107532808, 58.26669974619562, 51.173512363592586, 62.74239315763174 
70.5310438354577, 14.410056999427399, 21.420328720315144, 57.98891997704857, 50.747749373577534, 62.74714413715301 
69.64234067635272, 14.773678341652717, 21.419912531814244, 57.70578662728595, 50.324104116751165, 62.75188673875463 
68.75303266151249, 15.139351070384343, 21.41948454746513, 57.41743814305328, 49.90262580266917, 62.75661917632537 
