# MEX_intpoint_lon [deg], MEX_intpoint_lat [deg], MEX_intpoint_angle [deg], TGO_intpoint_lon [deg], TGO_intpoint_lat [deg], TGO_intpoint_angle [deg] 
-139.35756525884966, 19.600816351595224, 21.801855120999384, -27.409304108378233, 40.57118456925597, 62.90896775937428 
-140.2473134119585, 19.196908172821153, 21.802459817063085, -27.67377108334746, 40.9827702292914, 62.90428303215769 
-141.13543677275962, 18.7941435366291, 21.803052275571055, -27.932993825301217, 41.396865991914424, 62.89956130830258 
-142.02204003323388, 18.392616594263846, 21.80363233080962, -28.186866982323565, 41.813414090705024, 62.894804072696125 
-142.90722621746673, 17.992420835853473, 21.80419983189208, -28.43528108375537, 42.23235619850239, 62.89001285591851 
-143.79109666201487, 17.59364911479983, 21.804754642773585, -28.678122314424773, 42.65363339571434, 62.88518923371023 
-144.6737509972791, 17.196393671109423, 21.805296642248194, -28.915272277455493, 43.07718613621289, 62.88033482638518 
-145.55528712973606, 16.80074615363088, 21.805825723928134, -29.14660774497818, 43.50295421068097, 62.87545129818968 
-146.43580122489348, 16.40679764116689, 21.806341796205114, -29.372000396029655, 43.93087670726523, 62.870540356607385 
-147.3153876908425, 16.01463866243076, 21.80684478219409, -29.59131654088252, 44.360891969378216, 62.86560375161074 
-148.19413916229388, 15.624359214818876, 21.80733461965943, -29.804416831003316, 44.792937550481234, 62.86064327485947 
-149.07214648499294, 15.23604878197256, 21.80781126092362, -30.01115595379105, 45.22695016566608, 62.85566075884594 
-149.94949870041916, 14.849796350104063, 21.808274672758674, -30.21138231120011, 45.662865639839374, 62.850658075988555 
-150.826283030686, 14.465690423062576, 21.808724836260414, -30.404937681302187, 46.10061885229835, 62.84563713767334 
-151.70258486356522, 14.083819036118085, 21.809161746705964, -30.591656861790057, 46.54014367746989, 62.84059989324472 
-152.5784877375694, 13.704269768441508, 21.80958541339438, -30.77136729437457, 46.98137292156726, 62.83554832894542 
-153.45407332703545, 13.32712975426138, 21.80999585947091, -30.943888668971788, 47.4242382548992, 62.8304844668072 
-154.32942142716013, 12.952485692677916, 21.810393121735046, -31.10903250652432, 47.86867013954618, 62.825410363492416 
-155.20460993894633, 12.580423856117216, 21.810777250432636, -31.266601719245962, 48.31459775209508, 62.82032810908746 
-156.07971485402854, 12.211030097408672, 21.81114830903231, -31.416390147025858, 48.76194890110081, 62.81523982584946 
-156.95481023935187, 11.844389855470684, 21.811506373986695, -31.55818206867613, 49.210649938916504, 62.810147666906246 
-157.82996822168846, 11.480588159590228, 21.811851534478546, -31.691751686657085, 49.66062566750698, 62.80505381491159 
-158.70525897198104, 11.119709632283584, 21.812183892152223, -31.816862583868204, 50.1117992378295, 62.79996048065604 
-159.5807506895122, 10.761838490726495, 21.812503560830983, -31.93326715105183, 50.564092042334586, 62.794869901634996 
-160.4565095859036, 10.407058546743304, 21.81281066622032, -32.04070598332241, 51.017423600105175, 62.7897843405747 
-161.33259986895752, 10.055453205346346, 21.813105345597783, -32.13890724430915, 51.47171143411524, 62.78470608391795 
-162.20908372635947, 9.707105461817648, 21.813387747489827, -32.227585996386416, 51.92687094005089, 62.779637440270335 
-163.08602130926664, 9.362097897327253, 21.813658031335905, -32.30644349546834, 52.382815246094246, 62.774580738808545 
-163.96347071581528, 9.020512673083322, 21.813916367140433, -32.375166448864015, 52.83945506302678, 62.76953832765234 
-164.84148797458306, 8.68243152301148, 21.814162935113057, -32.43342623473416, 53.296698523961645, 62.76451257220107 
-165.72012702805324, 8.347935744962056, 21.814397925297573, -32.48087808176268, 53.75445101296481, 62.759505853436934 
-166.59943971612853, 8.017106190446281, 21.814621537190227, -32.51716020776471, 54.21261498177298, 62.75452056619605 
-167.4794757597522, 7.690023252903912, 21.81483397934758, -32.54189291610448, 54.671089753761585, 62.749559117409106 
-168.36028274469723, 7.366766854507322, 21.81503546898483, -32.55467764899986, 55.12977131425903, 62.7446239243133 
-169.24190610559074, 7.0474164315089185, 21.815226231564807, -32.55509599705739, 55.58855208624518, 62.73971741263706 
-170.12438911024552, 6.732050918141188, 21.8154065003783, -32.54270866472448, 56.0473206904118, 62.73484201475958 
-171.00777284437638, 6.420748729081015, 21.815576516116366, -32.5170543917793, 56.50596168850137, 62.73000016784673 
-171.89209619678232, 6.113587740492627, 21.815736526434975, -32.4776488315207, 56.964355308780135, 62.725194311965375 
-172.77739584508072, 5.810645269665835, 21.815886785512735, -32.42398338699213, 57.422377152441655, 62.72042688817755 
-173.6637062420849, 5.511998053269064, 21.81602755360221, -32.35552400739715, 57.87989787967929, 62.715700336617275 
-174.55105960291763, 5.217722224239947, 21.816159096575404, -32.27170994786916, 58.336782874113744, 62.7110170945507 
-175.4394858929596, 4.927893287338345, 21.81628168546404, -32.17195249697489, 58.79289188421547, 62.706379594423154 
-176.32901281673318, 4.642586093390696, 21.816395595995246, -32.05563367779889, 59.24807864032456, 62.70179026189333 
-177.2196658078252, 4.361874812256902, 21.816501108123152, -31.92210493021484, 59.70219044584771, 62.69725151385852 
-178.11146801995503, 4.085832904554742, 21.8165985055572, -31.77068578404891, 60.155067741204654, 62.692765756471154 
-179.0044403192961, 3.8145330921798077, 21.816688075287555, -31.600662535334745, 60.60654363911361, 62.68833538315056 
-179.89860127816067, 3.5480473276625237, 21.816770107108507, -31.411286940809557, 61.05644342984975, 62.68396277259061 
179.20603282984132, 3.2864467624071367, 21.81684489314015, -31.201774949275332, 61.50458405519396, 62.679650286766325 
178.30944803305744, 3.029801713860937, 21.81691272734934, -30.971305492522145, 61.95077354991767, 62.67540026894111 
177.4116326633508, 2.778181631665842, 21.816973905070203, -30.719019363264426, 62.3948104498356, 62.67121504167734 
176.51257735584855, 2.53165506284751, 21.817028722525137, -30.444018213059664, 62.836483165716984, 62.667096904852045 
175.6122750467717, 2.2902896161011195, 21.81707747634668, -30.1453637095549, 63.27556932268848, 62.663048133680086 
174.71072096923567, 2.0541519252361393, 21.817120463101, -29.822076899724436, 63.71183506521339, 62.65907097674723 
173.80791264691578, 1.823307611846127, 21.817157978813643, -29.473137834112997, 64.14503432830631, 62.65516765405537 
172.90384988547262, 1.5978212472728393, 21.817190318498106, -29.097485516549295, 64.57490807637072, 62.651340355081516 
171.998534761636, 1.377756313937438, 21.817217775687826, -28.694018254407034, 65.001183511953, 62.64759123685414 
171.09197160985067, 1.1631751661148113, 21.817240641972337, -28.261594496279667, 65.42357325782187, 62.6439224220476 
170.1841670063902, 0.9541389902300896, 21.81725920653799, -27.799034256880738, 65.84177451714427, 62.640335997098 
169.27512975085125, 0.7507077647596346, 21.817273755714123, -27.305121242988147, 66.25546821816864, 62.636834010342334 
168.36487084494627, 0.5529402198216034, 21.817284572524922, -26.77860580913174, 66.66431815178842, 62.63341847018302 
167.453403468518, 0.3608937965437441, 21.81729193624792, -26.2182088871658, 67.06797011267696, 62.63009134328024 
166.54074295270732, 0.17462460629896526, 21.817296121979435, -25.622627049398282, 67.46605105739752, 62.62685455277449 
165.62690675021196, -0.005812610099003568, 21.817297400207714, -24.990538879880656, 67.8581682960299, 62.623709976540724 
164.71191440258264, -0.18036452314491702, 21.817296036394197, -24.32061284186103, 68.24390873743766, 62.6206594454772 
163.7957875045113, -0.3489792552399637, 21.817292290563554, -23.61151684001802, 68.62283821233441, 62.61770474183048 
162.87854966507558, -0.5116064210402794, 21.817286416902974, -22.861929682319186, 68.99450090277206, 62.61484759755904 
161.96022646591214, -0.6681971674567939, 21.817278663371305, -22.07055464617658, 69.35841891152172, 62.61208969273731 
161.0408454163024, -0.8187042132062518, 21.817269271318473, -21.236135344566506, 69.71409200994808, 62.609432654002184 
160.12043590516473, -0.9630818878125643, 21.81725847511572, -20.357474067083718, 70.0609976082441, 62.60687805304414 
159.19902914995635, -1.1012861699575538, 21.817246501797186, -19.433452735284554, 70.39859099706791, 62.604427405144676 
158.27665814250128, -1.2332747250801557, 21.81723357071324, -18.46305655767317, 70.72630591440348, 62.60208216776202 
157.35335759177005, -1.3590069421236206, 21.817219893196075, -17.445400393805247, 71.04355549544846, 62.59984373916695 
156.4291638636496, -1.4784439693311568, 21.817205672237975, -16.379757736051843, 71.34973366601164, 62.597713457130475 
155.50411491775247, -1.5915487489917644, 21.81719110218274, -15.265592089194481, 71.64421704067291, 62.59569259766503 
154.5782502413267, -1.6982860510394147, 21.817176368430502, -14.102590371246224, 71.92636738512385, 62.5937823738207 
153.65161078033907, -1.7986225054111415, 21.817161647156617, -12.890697774906727, 72.1955346969165, 62.59198393453857 
152.72423886781542, -1.8925266330716568, 21.817147105044707, -11.630153322065581, 72.4510609495365, 62.590298363561914 
151.79617814953457, -1.9799688756152336, 21.81713289903441, -10.321525121793233, 72.69228453059743, 62.58872667840724 
150.86747350718176, -2.060921623358674, 21.817119176084038, -8.96574411782052, 72.91854538550203, 62.58726982939644 
149.93817097907976, -2.135359241842769, 21.817106072948572, -7.56413490192475, 73.12919085291087, 62.585928698751026 
149.00831767862553, -2.203258096663771, 21.817093715973254, -6.118441996753459, 73.32358214800603, 62.58470409975021 
148.07796171057083, -2.264596576560584, 21.81708222090292, -4.630849900688932, 73.50110141460974, 62.583596775953254 
147.14715208529475, -2.319355114688207, 21.817071692707554, -3.1039951649837754, 73.66115922915337, 62.58260740048761 
146.2159386312248, -2.3675162080128254, 21.817062225424166, -1.5409688643915078, 73.8032024004416, 62.581736575403966 
145.28437190557185, -2.40906443476947, 21.81705390201509, 0.054691954049606924, 73.9267218719347, 62.5809848310982 
144.35250310355227, -2.4439864699285607, 21.8170467942432, 1.679024894566205, 74.03126050119486, 62.580352625802114 
143.4203839662769, -2.472271098623722, 21.817040962563897, 3.3276754578616017, 74.11642046774756, 62.57984034514282 
142.48806668749302, -2.4939092274992207, 21.81703645603419, 4.995942841841462, 74.18187004924759, 62.57944830177177 
141.55560381937138, -2.508893893941738, 21.817033312238934, 6.6788375413456915, 74.22734950922249, 62.57917673506369 
140.62304817753355, -2.517220273167752, 21.81703155723431, 8.37114927974989, 74.25267585938461, 62.57902581088608 
139.6904527455198, -2.5188856831443, 21.817031205508684, 10.06752313885947, 74.25774629565883, 62.57899562143934 
138.75787057889954, -2.5138895873277263, 21.81703225996081, 11.762541197675187, 74.24254015806498, 62.57908618516807 
137.8253547092282, -2.5022335952119072, 21.81703471189551, 13.450806604441766, 74.20711932715342, 62.5792974467431 
136.89295804805533, -2.483921460684096, 21.81703854103668, 15.127026832695007, 74.15162703917551, 62.57962927711484 
135.9607332911883, -2.4589590781936588, 21.817043715557826, 16.78609293048248, 74.07628517308363, 62.58008147363785 
135.0287328234149, -2.4273544767456747, 21.817050192129884, 18.42315185589212, 73.9813901291245, 62.5806537602658 
134.0970086238857, -2.389117811738161, 21.817057915986346, 20.033669469589864, 73.86730747607004, 62.581345787817426 
133.16561217235426, -2.3442613546684474, 21.81706682100564, 21.613482374275467, 73.7344655880121, 62.58215713431252 
132.23459435646902, -2.2927994807407694, 21.8170768298106, 23.1588374878878, 73.5833485196757, 62.583087305377774 
131.3040053803061, -2.234748654413461, 21.817087853884896, 24.66641894548675, 73.41448838064332, 62.58413573472204 
130.3738946743254, -2.17012741293056, 21.817099793706305, 26.13336258362404, 73.22845746461437, 62.58530178467974 
129.44431080692783, -2.098956347888363, 21.817112538896605, 27.557258823189695, 73.02586037205575, 62.5865847468227 
128.5153013977818, -2.0212580848933968, 21.81712596838794, 28.93614520137742, 72.80732633642204, 62.58798384263855 
127.58691303308058, -1.9370572613737516, 21.81713995060539, 30.268490097231442, 72.57350192903876, 62.58949822427577 
126.65919118288336, -1.8463805026107332, 21.8171543436655, 31.553169350595418, 72.32504427921627, 62.591126975353276 
125.73218012068226, -1.7492563960628578, 21.817168995590592, 32.78943750575202, 72.062614907293, 62.5928691118348 
124.80592284532933, -1.6457154640585372, 21.81718374453841, 33.97689534109365, 71.78687423158524, 62.5947235829656 
123.88046100544607, -1.5357901349381207, 21.817198419047052, 35.115455200954635, 71.49847677744508, 62.59668927227114 
122.955834826428, -1.4195147127296526, 21.817212838294473, 36.20530545151987, 71.19806708888981, 62.598764998616055 
122.03208304014522, -1.296925345446179, 21.81722681237268, 37.24687516325163, 70.88627632104301, 62.60094951732216 
121.10924281742906, -1.1680599920954182, 21.817240142575905, 38.24079989720614, 70.56371947489158, 62.603241521343726 
120.18734970342337, -1.0329583884952496, 21.817252621702504, 39.18788925685588, 70.23099322422598, 62.60563964249921 
119.26643755586706, -0.8916620119908523, 21.81726403437015, 40.08909667079728, 69.88867427747323, 62.60814245275677 
118.3465384863636, -0.7442140451708422, 21.817274157344045, 40.94549170102467, 69.5373182137152, 62.61074846557282 
117.42768280468056, -0.5906593386815862, 21.817282759877397, 41.758235028881664, 69.17745873174428, 62.61345613728152 
116.50989896611225, -0.4310443732396329, 21.817289604064108, 42.52855615637583, 68.80960725281538, 62.61626386853344 
115.59321352192525, -0.26541722094304404, 21.81729444520289, 43.25773377249674, 68.4342528211526, 62.61917000578147 
114.67765107289779, -0.09382750598258074, 21.817297032172494, 43.947078669663725, 68.05186225070662, 62.6221728428123 
113.76323422595048, 0.08367363514632098, 21.817297107817485, 44.59791905106345, 67.66288047168051, 62.62527062232131 
112.84998355385818, 0.267033593830152, 21.817294409344147, 45.211588041902594, 67.2677310355944, 62.62846153752909 
111.9379175580201, 0.45619832982292957, 21.81728866872583, 45.789413203132796, 66.86681674288089, 62.631743733837304 
111.02705263425715, 0.6511124119319998, 21.81727961311739, 46.33270784194805, 66.46052036200763, 62.63511531052218 
110.11740304159564, 0.8517190588067852, 21.81726696527804, 46.8427639166589, 66.04920541378735, 62.63857432246313 
109.20898087398776, 1.0579601797348932, 21.817250444002156, 47.320846342194976, 65.63321699879069, 62.642118781904664 
108.30179603491091, 1.2697764153518705, 21.81722976455737, 47.76818851466984, 65.212882649585, 62.64574666024938 
107.3958562147804, 1.4871071781731582, 21.817204639129447, 48.18598888774416, 64.78851319288148, 62.64945588987964 
106.49116687110282, 1.709890692859136, 21.817174777273355, 48.575408448853935, 64.36040360959439, 62.65324436600607 
105.58773121129087, 1.938064036126815, 21.81713988636989, 48.937568958927876, 63.928833883327506, 62.65710994854037 
104.68555017805447, 2.1715631762244967, 21.81709967208735, 49.273551834428616, 63.49406982993853, 62.66105046399048 
103.78462243727736, 2.4103230118887407, 21.817053838847464, 49.58439756502585, 63.0563639026271, 62.665063707375275 
102.8849443682843, 2.654277410705993, 21.81700209029528, 49.871105573702856, 62.61595596849033, 62.66914744415741 
101.9865100563994, 2.9033592468044893, 21.816944129771983, 50.134634438471906, 62.173074053722246, 62.6732994121914 
101.08931128769228, 3.1575004378054743, 21.816879660790455, 50.37590240607472, 61.72793505564068, 62.67751732368477 
100.19333754580693, 3.4166319809659065, 21.816808387512562, 50.595788138070056, 61.280745420539695, 62.68179886717022 
99.29857601076431, 3.680683988448648, 21.81673001522792, 50.795131638603564, 60.831701787012015, 62.686141709486385 
98.40501155962986, 3.9495857216592016, 21.816644250833118, 50.97473532097884, 60.38099159489765, 62.690543497765205 
97.5126267689338, 4.223265624592094, 21.816550803311117, 51.13536517698495, 59.92879366040834, 62.69500186142294 
96.62140191873343, 4.501651356132947, 21.816449384210006, 51.2777520188714, 59.475278718276655, 62.699514414153946 
95.7313149982051, 4.784669821266381, 21.81633970812049, 51.402592768987205, 59.02060993199888, 62.70407875592343 
94.84234171265504, 5.072247201142885, 21.816221493151648, 51.51055177650299, 58.564943373396446, 62.70869247495825 
93.95445549183805, 5.364308981961657, 21.816094461404067, 51.602262144399646, 58.10842847282583, 62.713353149732974 
93.0676274994755, 5.660779982629465, 21.81595833944003, 51.67832705311024, 57.651208441428786, 62.7180583509493 
92.18182664386532, 5.961584381159185, 21.815812858749897, 51.739321069915306, 57.19342066684547, 62.72280564350649 
91.29701958947848, 6.266645739774894, 21.815657756214225, 51.78579143548243, 56.73519708381682, 62.727592588461114 
90.41317076944061, 6.575887028693372, 21.81549277456097, 51.81825932086244, 56.276664521087056, 62.73241674497364 
89.53024239879825, 6.889230648555348, 21.81531766281714, 51.837221049862734, 55.817945025986184, 62.73727567224029 
88.64819448847481, 7.2065984514823676, 21.815132176754364, 51.84314928305559, 55.35915616803106, 62.742166931407645 
87.76698485982307, 7.527911760738608, 21.81493607932776, 51.83649416078547, 54.90041132283284, 62.74708808746883 
86.88656915968673, 7.853091388979087, 21.81472914110754, 51.81768440345073, 54.44181993754426, 62.752036711138416 
86.00690087588622, 8.182057655069155, 21.81451114070278, 51.78712836807854, 53.98348777902075, 62.757010380705054 
85.12793135305019, 8.51473039946199, 21.814281865176774, 51.74521506081716, 53.525517165809504, 62.76200668385957 
84.24960980871722, 8.85102899812396, 21.814041110453488, 51.69231510545335, 53.068007185018935, 62.76702321949681 
83.37188334963892, 9.19087237499944, 21.81378868171455, 51.62878166845106, 52.61105389506104, 62.772057599489536 
82.49469698821966, 9.53417901300936, 21.813524393786167, 51.55495134130886, 52.15475051519918, 62.77710745043285 
81.61799365903424, 9.880866963579757, 21.813248071515627, 51.471144981268765, 51.699187602776064, 62.78217041535713 
80.74171423537071, 10.2308538546984, 21.812959550136725, 51.377668511584645, 51.244453218941395, 62.78724415540846 
79.86579754575024, 10.584056897499893, 21.812658675623762, 51.27481368268775, 50.79063308364461, 62.79232635149437 
78.99018039038405, 10.940392891380887, 21.81234530503356, 51.162858795675916, 50.337810720608026, 62.79741470589406 
78.11479755753108, 11.299778227649565, 21.812019306834966, 51.042069389611434, 49.88606759294671, 62.802506943831254 
77.23958183972898, 11.662128891714074, 21.811680561225696, 50.9126988941436, 49.43548323005643, 62.80760081500826 
76.36446404987537, 12.027360463817352, 21.8113289604357, 50.774989248982486, 48.98613534634746, 62.81269409510055 
75.48937303714479, 12.395388118326213, 21.810964409016968, 50.62917149174487, 48.538099952362245, 62.817784587209566 
74.61423570273253, 12.76612662158452, 21.810586824119163, 50.47546631567291, 48.09145145877658, 62.822870123273574 
73.73897701542381, 13.139490328341521, 21.810196135750846, 50.314084598696816, 47.64626277374852, 62.827948565434866 
72.86352002699446, 13.515393176767507, 21.809792287025868, 50.14522790527482, 47.202605394046614, 62.83301780736199 
71.98778588745603, 13.893748682070425, 21.809375234394597, 49.96908896239954, 46.76054949035756, 62.83807577552685 
71.11169386016647, 14.274469928728056, 21.80894494785967, 49.78585211111223, 46.3201639871449, 62.843120430434574 
70.23516133683441, 14.657469561351794, 21.808501411175925, 49.59569373481519, 45.88151663740368, 62.8481497678061 
69.35810385245436, 15.042659774198908, 21.808044622034352, 49.39878266561964, 45.44467409263064, 62.85316181971231 
