# MEX_intpoint_lon [deg], MEX_intpoint_lat [deg], MEX_intpoint_angle [deg], TGO_intpoint_lon [deg], TGO_intpoint_lat [deg], TGO_intpoint_angle [deg] 
-138.75918051463313, 19.457229103704012, 21.39634016852352, -27.730861063701482, 45.43258394518468, 62.8054716643415 
-139.66214907184107, 19.0752480955889, 21.39689725159668, -28.07496989411429, 45.824730674947354, 62.80098805976895 
-140.56349903181453, 18.694290137811773, 21.397443584811427, -28.41513442482678, 46.219586239964165, 62.7964763491262 
-141.46332599552912, 18.314447212871713, 21.397979014697828, -28.75127430411332, 46.61710626621552, 62.79193794461712 
-142.36172417102318, 17.93581065613428, 21.39850340080825, -29.08330573373242, 47.01724612478013, 62.78737429341361 
-143.25878634577097, 17.558471174844538, 21.399016615732794, -29.411141253917496, 47.41996091813518, 62.782786877161065 
-144.15460386036418, 17.182518866328163, 21.399518545098953, -29.7346895151208, 47.82520546502933, 62.77817721144123 
-145.04926658336746, 16.808043235342122, 21.40000908755563, -30.053855035519806, 48.2329342838398, 62.773546845193465 
-145.94286288722608, 16.43513321053826, 21.40048815474154, -30.368537943210956, 48.64310157431829, 62.768897360094094 
-146.835479625109, 16.063877160005717, 21.400955671238012, -30.67863370192329, 49.05566119761988, 62.76423036989456 
-147.72720210858293, 15.694362905859522, 21.40141157450641, -30.98403281898387, 49.470566654501006, 62.75954751971825 
-148.61811408601915, 15.326677737845266, 21.40185581481018, -31.284620534156073, 49.887771061560436, 62.75485048531703 
-149.50829772164442, 14.960908425930896, 21.40228835512173, -31.580276487851307, 50.30722712538596, 62.75014097228704 
-150.39783357515546, 14.597141231858837, 21.40270917101425, -31.87087436708221, 50.72888711445646, 62.74542071524522 
-151.2868005818236, 14.235461919633194, 21.403118250538743, -32.15628152738001, 51.15270282863401, 62.74069147696628 
-152.1752760330254, 13.87595576491806, 21.40351559408623, -32.43635858873978, 51.578625566065135, 62.73595504748116 
-153.0633355571416, 13.518707563325073, 21.403901214235674, -32.71095900348249, 52.00660608729222, 62.73121324313729 
-153.95105310077457, 13.16380163756914, 21.40427513558754, -32.979928593730826, 52.436594576356605, 62.72646790562172 
-154.83850091024163, 12.81132184347346, 21.404637394583393, -33.24310505598504, 52.8685405986532, 62.721720900947226 
-155.72574951330932, 12.46135157480568, 21.40498803931172, -33.50031743005353, 53.30239305527201, 62.71697411840269 
-156.61286770113944, 12.113973766929192, 21.405327129300403, -33.751385529337675, 53.73810013353542, 62.71222946946851 
-157.49992251042542, 11.769270899254295, 21.405654735295855, -33.996119329190826, 54.1756092534104, 62.70748888669727 
-158.3869792057044, 11.427324996476118, 21.405970939029427, -34.23431830976222, 54.61486700944105, 62.702754322561326 
-159.27410126183563, 11.088217628586998, 21.406275832971204, -34.46577074939759, 55.05581910781121, 62.69802774826792 
-160.16135034664325, 10.752029909653047, 21.406569520071596, -34.69025296429393, 55.49841029810457, 62.69331115254258 
-161.04878630372744, 10.418842495345933, 21.406852113491126, -34.90752848969434, 55.94258429928484, 62.68860654038213 
-161.93646713545348, 10.088735579222305, 21.407123736318663, -35.11734719745504, 56.38828371936748, 62.68391593177833 
-162.82444898613454, 9.761788887745434, 21.407384521278622, -35.319444344317034, 56.83544996819668, 62.67924136041293 
-163.71278612542937, 9.438081674044668, 21.407634610427404, -35.51353954466447, 57.28402316267906, 62.67458487232582 
-164.6015309319819, 9.117692710410676, 21.40787415483956, -35.69933566094559, 57.73394202375263, 62.669948524556915 
-165.49073387733497, 8.800700279525659, 21.408103314284045, -35.87651760426494, 58.18514376429133, 62.6653343837632 
-166.38044351015515, 8.48718216443015, 21.408322256891086, -36.044751036920815, 58.63756396705498, 62.66074452481239 
-167.27070644081138, 8.177215637229418, 21.40853115880996, -36.20368096785539, 59.09113645169502, 62.65618102935409 
-168.16156732635446, 7.870877446544969, 21.40873020385827, -36.352930231096856, 59.54579312971332, 62.65164598437017 
-169.0530688559486, 7.568243803718472, 21.408919583163133, -36.492097836300694, 60.001463846145434, 62.647141480705514 
-169.9452517368118, 7.269390367777588, 21.409099494794745, -36.62075717943017, 60.4580762065976, 62.642669611580274 
-170.83815468072484, 6.974392229175543, 21.409270143392853, -36.738454100450845, 60.91555538810713, 62.63823247108593 
-171.7318143911729, 6.683323892318663, 21.40943173978649, -36.84470477364121, 61.373823932115606, 62.63383215266545 
-172.6262655511877, 6.3962592568982535, 21.409584500607735, -36.93899341473934, 61.832801517643, 62.62947074757987 
-173.52154081196193, 6.1132715980457855, 21.40972864789972, -37.020769787645726, 62.29240471252222, 62.62515034336266 
-174.4176707823086, 5.834433545333162, 21.409864408719574, -37.089446491786184, 62.752546700296826, 62.62087302226313 
-175.31468401904476, 5.559817060641832, 21.4099920147368, -37.144396009505996, 63.21313698009623, 62.61664085968067 
-176.2126070183771, 5.289493414927939, 21.410111701827567, -37.18494749102109, 63.67408103647546, 62.61245592259136 
-177.11146420837244, 5.0235331639128145, 21.410223709665505, -37.21038325250774, 64.13527997584094, 62.6083202679688 
-178.01127794259645, 4.762006122731215, 21.410328281309475, -37.21993496088794, 64.59663012566904, 62.60423594120025 
-178.91206849500574, 4.50498133957244, 21.41042566278892, -37.212779476793614, 65.0580225922595, 62.6002049745002 
-179.81385405617948, 4.252527068352419, 21.410516102687335, -37.18803432511892, 65.51934277224306, 62.59622938532303 
179.28334926902252, 4.0047107404575915, 21.41059985172434, -37.1447527605616, 65.98046981247481, 62.592311174776036 
178.3795274622873, 3.761598935604363, 21.410677162336935, -37.08191839370885, 66.44127601228828, 62.58845232603513 
177.4746685910765, 3.5232573518610137, 21.410748288260603, -36.998439341674015, 66.90162616134923, 62.58465480276425 
176.56876280616493, 3.2897507748814196, 21.41081348411056, -36.893141866217356, 67.36137680552993, 62.580920547540785 
175.66180233740755, 3.0611430464033993, 21.410873004963964, -36.76476346193466, 67.82037543231681, 62.57725148028846 
174.75378148764818, 2.8374970320667745, 21.410927105943447, -36.61194535779821, 68.278459566262, 62.57364949671923 
173.84469662468916, 2.6188745886094984, 21.41097604180263, -36.43322439752394, 68.73545576389216, 62.570116466786466 
172.93454617124172, 2.4053365305026553, 21.41102006651409, -36.22702426849099, 69.19117849629653, 62.56665423315049 
172.02333059278024, 2.1969425960880073, 21.411059432860355, -35.9916460560131, 69.64542890633813, 62.56326460965874 
171.11105238322685, 1.9937514132842042, 21.411094392028463, -35.72525811063868, 70.09799342608326, 62.55994937984196 
170.19771604839679, 1.7958204649303329, 21.411125193208658, -35.42588523211617, 70.54864223865387, 62.55671029542822 
169.283328087139, 1.6032060538377917, 21.411152083197585, -35.091397196345994, 70.99712756731684, 62.55354907487659 
168.36789697011184, 1.41596326762379, 21.411175306006776, -34.7194966831495, 71.44318177330622, 62.550467401931876 
167.4514331161383, 1.2341459434016542, 21.411195102476714, -34.307706705680914, 71.88651524272657, 62.54746692420238 
166.53394886609155, 1.057806632405249, 21.41121170989704, -33.853357700130275, 72.32681404205442, 62.54454925176239 
165.61545845426753, 0.8869965646262704, 21.411225361633484, -33.3535745111562, 72.76373732144638, 62.54171595578049 
164.6959779772074, 0.7217656135449181, 21.411236286761923, -32.80526360930897, 73.19691444555696, 62.53896856717605 
163.77552535994147, 0.562162261035592, 21.411244709710104, -32.20510100762212, 73.62594183325663, 62.53630857530505 
162.8541203196309, 0.40823356253034493, 21.41125084990738, -31.549521512645256, 74.05037949103796, 62.53373742667693 
161.93178432659383, 0.26002511252365273, 21.411254921443195, -30.83471015843184, 74.4697472306917, 62.53125652370375 
161.00854056270865, 0.11758101050261303, 21.411257132734413, -30.0565969388671, 74.88352057091795, 62.528867223483786 
160.08441387719776, -0.01905617261303041, 21.411257686202205, -29.210856282447285, 75.29112633604511, 62.52657083662031 
159.15943073980054, -0.14984542743669457, 21.41125677795881, -28.292913110773846, 75.69193798437486, 62.524368626077354 
158.2336191913566, -0.27474733840238486, 21.41125459750458, -27.29795779020538, 76.08527072555512, 62.52226180607404 
157.30700879182683, -0.3937241152903659, 21.41125132743576, -26.22097282032681, 76.47037652276944, 62.520251541018375 
156.37963056579005, -0.5067396239083303, 21.41124714316329, -25.05677468523958, 76.84643912354858, 62.518338944482146 
155.4515169454619, -0.6137594158466855, 21.41124221264315, -23.800074885867808, 77.21256932473183, 62.51652507821806 
154.52270171129186, -0.7147507572280535, 21.411236696118454, -22.4455647051898, 77.5678007541598, 62.51481095122031 
153.59321993020362, -0.809682656372873, 21.411230745873727, -20.988028623691005, 77.91108654458976, 62.51319751883002 
152.6631078915526, -0.8985258903051256, 21.411224506001684, -19.422491336372087, 78.24129738252954, 62.51168568188617 
151.7324030408844, -0.9812530300247778, 21.411218112182734, -17.744402800914287, 78.55722153118094, 62.510276285923474 
150.80114391158514, -1.057838464476098, 21.411211691477657, -15.949864384912804, 78.8575675423178, 62.50897012041823 
149.86937005452506, -1.1282584231441917, 21.41120536213358, -14.035896655889749, 79.14097046958231, 62.50776791808265 
148.93712196580339, -1.1924909972154731, 21.411199233403522, -12.00074536411067, 79.40600244983071, 62.506670354209184 
148.00444101271117, -1.2505161592412677, 21.41119340537996, -9.844216512523177, 79.65118849566204, 62.50567804606504 
147.0713693580361, -1.3023157812478157, 21.41118796884225, -7.568024160910401, 79.8750282007642, 62.504791552338226 
146.13794988284045, -1.347873651240001, 21.411183005118477, -5.176126289227277, 80.07602376003787, 62.50401137263542 
145.2042261078493, -1.3871754880504947, 21.411178585961725, -2.675015778978154, 80.25271422013151, 62.50333794703244 
144.2702421135931, -1.4202089544907393, 21.411174773440933, -0.07392716793624281, 80.4037152023572, 62.50277165567792 
143.33604245945307, -1.4469636687648606, 21.41117161984659, 2.615082391592255, 80.52776252356844, 62.50231281845075 
142.40167210176378, -1.4674312141127095, 21.411169167611238, 5.3772152552189665, 80.62375728347286, 62.50196169467136 
141.46717631112998, -1.4816051466533444, 21.411167449245056, 8.195203440377405, 80.69080924591496, 62.50171848286791 
140.53260058912002, -1.489481001405516, 21.411166487286447, 11.049771565173497, 80.72827490365194, 62.501583320596836 
139.59799058449926, -1.491056296467199, 21.41116629426785, 13.920271809766465, 80.73578664946987, 62.50155628431869 
138.6633920091699, -1.4863305353415885, 21.411166872696718, 16.785444099173674, 80.71327007138531, 62.50163738932902 
137.72885055398513, -1.475305207402693, 21.411168215051674, 19.624234091470804, 80.66094750979076, 62.5018265897446 
136.79441180460478, -1.457983786498982, 21.411170303793963, 22.416591609651267, 80.5793274851074, 62.50212377854487 
135.86012115756145, -1.4343717276994163, 21.41117311139407, 25.14417554934986, 80.46918115095191, 62.50252878766852 
134.92602373670286, -1.4044764621915458, 21.411176600373512, 27.7909071075058, 80.3315082527941, 62.50304138816542 
133.99216431017697, -1.368307390346899, 21.411180723361788, 30.34333725147231, 80.1674959430695, 62.50366129040332 
133.05858720812162, -1.325875872974501, 21.411185423168316, 32.790820833919284, 79.97847411364107, 62.50438814432889 
132.12533624121878, -1.2771952207884707, 21.411190632869364, 35.1255130882389, 79.76587068659323, 62.50522153978373 
131.19245462026987, -1.2222806821210137, 21.411196275909788, 37.342220666871846, 79.53116969131293, 62.50616100687377 
130.25998487694278, -1.1611494289172133, 21.411202266219494, 39.438147589224954, 79.27587413443095, 62.50720601639218 
129.32796878583744, -1.0938205410528345, 21.41120850834439, 41.412577232321595, 79.00147481597148, 62.508355980295235 
128.3964472880102, -1.0203149890211598, 21.411214897591805, 43.26652687676614, 78.70942549102928, 62.50961025223075 
127.46546041609179, -0.9406556150393154, 21.41122132018995, 45.002403720716416, 78.40112419394023, 62.51096812811741 
126.53504722112639, -0.8548671126289078, 21.41122765346147, 46.62368279623478, 78.07790015115185, 62.512428846776004 
125.60524570125135, -0.7629760047296873, 21.411233766010685, 48.134619337983416, 77.74100549303549, 62.51399159060966 
124.67609273233137, -0.6650106204088497, 21.411239517924294, 49.540001670526905, 77.39161089762398, 62.51565548633429 
123.74762400065084, -0.5610010702320289, 21.4112447609853, 50.84494586746686, 77.03080431933462, 62.51741960575658 
122.8198739377608, -0.450979220365167, 21.41124933889995, 52.05473021081839, 76.65959203538901, 62.519282966599945 
121.89287565756807, -0.3349786654795096, 21.411253087537204, 53.17466557717732, 76.27890135192791, 62.52124453337618 
120.96666089574535, -0.2130347005344159, 21.41125583518063, 54.20999697425246, 75.8895844295469, 62.52330321830293 
120.04125995153143, -0.08518429151508518, 21.411257402792195, 55.165831239491546, 75.49242280073231, 62.52545788226475 
119.11670163198268, 0.04853395479574779, 21.411257604287748, 56.04708613634027, 75.08813225210889, 62.52770733581738 
118.19301319872663, 0.18807982193153128, 21.4112562468238, 56.85845655002154, 74.67736782942886, 62.53005034023344 
117.27022031725988, 0.3334115156587842, 21.41125313109511, 57.6043940585287, 74.26072879246736, 62.5324856085886 
116.34834700882344, 0.48448569661425206, 21.411248051642882, 58.28909674820465, 73.83876340161584, 62.53501180688673 
115.42741560487902, 0.641257513578299, 21.411240797172965, 58.91650670487, 73.41197345989637, 62.53762755522283 
114.50744670420187, 0.8036806373003509, 21.411231150883822, 59.490313113944715, 72.98081856549713, 62.540331428981794 
113.58845913259567, 0.9717072947919766, 21.411218890803642, 60.013959335719356, 72.54572005281203, 62.54312196007262 
112.67046990522788, 1.1452883040032504, 21.41120379013633, 60.490652684231364, 72.1070646162011, 62.54599763819523 
111.75349419157484, 1.3243731087985469, 21.411185617615807, 60.92337593503299, 71.66520762182348, 62.54895691213947 
110.83754528295806, 1.5089098141486819, 21.411164137868184, 61.31489982612636, 71.22047612020835, 62.55199819111419 
109.92263456264608, 1.6988452214570486, 21.411139111781328, 61.667796005966714, 70.77317157672697, 62.555119846104986 
109.00877147848838, 1.8941248639387063, 21.411110296881375, 61.98445003099672, 70.32357233959722, 62.55832021125903 
108.09596351804176, 2.0946930419727856, 21.411077447715616, 62.26707413022018, 69.87193586608626, 62.56159758529508 
107.18421618614214, 2.3004928583501427, 21.411040316241337, 62.517719542436915, 69.41850072762992, 62.56495023293761 
106.27353298487006, 2.5114662533399197, 21.41099865222001, 62.73828829849362, 68.96348841398674, 62.568376386372655 
105.36391539585156, 2.72755403950089, 21.41095220361639, 62.9305443708497, 68.50710495553378, 62.571874246724185 
104.45536286483161, 2.9486959361652625, 21.41090071700204, 63.09612414963708, 68.04954238156381, 62.57544198554936 
103.54787278845244, 3.1748306035252787, 21.410843937962518, 63.23654623119534, 67.5909800310778, 62.579077746350315 
102.64144050316523, 3.4058956762550365, 21.41078161150804, 63.353220524153336, 67.13158573117055, 62.58277964610184 
101.73605927620007, 3.641827796602698, 21.41071348248675, 63.44745669136738, 66.67151685673196, 62.58654577679196 
100.83172029851517, 3.882562646890855, 21.410639296000294, 63.52047195486092, 66.21092128387117, 62.59037420697478 
99.92841267964518, 4.128034981365411, 21.410558797821064, 63.5733982964663, 65.74993824823447, 62.59426298333318 
99.02612344436442, 4.378178657336315, 21.41047173481043, 63.60728909000764, 65.28869911824307, 62.59821013225005 
98.12483753108111, 4.632926665556073, 21.4103778553377, 63.623125202246705, 64.82732809222699, 62.60221366138594 
97.22453779187553, 4.892211159785169, 21.41027690969904, 63.62182059994152, 64.36594282747701, 62.60627156126176 
96.32520499409593, 5.155963485495961, 21.410168650535812, 63.604227499621615, 63.90465500837362, 62.610381806844615 
95.42681782342427, 5.4241142076700815, 21.410052833251886, 63.5711410953459, 63.443570859976155, 62.61454235913525 
94.52935288832553, 5.696593137646699, 21.409929216429333, 63.52330389799235, 62.98279161275961, 62.618751166755075 
93.63278472579273, 5.973329358982474, 21.409797562241913, 63.461409717688454, 62.5224139235651, 62.62300616753149 
92.73708580830309, 6.2542512522863465, 21.409657636865827, 63.386107318939445, 62.06253025727579, 62.62730529007969 
91.84222655190025, 6.539286518995611, 21.409509210887293, 63.29800377593038, 61.603229233237116, 62.63164645537909 
90.94817532531965, 6.828362204062327, 21.40935205970624, 63.197667553425, 61.144595940000684, 62.63602757834312 
90.05489846007701, 7.121404717521775, 21.409185963935755, 63.08563133669582, 60.68671222158279, 62.640446569380636 
89.16236026144061, 7.41833985491762, 21.40901070979663, 62.96239463202343, 60.22965693808114, 62.64490133594712 
88.27052302021238, 7.719092816560855, 21.408826089506544, 62.828426157513796, 59.77350620318791, 62.649389784084484 
87.3793470252445, 8.023588225602383, 21.40863190166341, 62.68416604230591, 59.31833360086326, 62.65390981994792 
86.48879057662246, 8.33175014490131, 21.40842795162231, 62.53002785068582, 58.86421038319274, 62.658459351317816 
85.59880999944815, 8.643502092673941, 21.408214051865546, 62.36640044618154, 58.411205651236536, 62.66303628909606 
84.70935965816115, 8.958767056910103, 21.40799002236531, 62.19364970938667, 57.959386520488536, 62.66763854878441 
83.82039197133986, 9.277467508546632, 21.407755690938547, 62.01212012204272, 57.50881827239313, 62.67226405194424 
82.93185742692874, 9.599525413389149, 21.407510893593432, 61.822136228794186, 57.059564493217636, 62.67691072763599 
82.04370459784218, 9.924862242775953, 21.407255474867164, 61.624003987012195, 56.61168720144393, 62.68157651383686 
81.1558801579, 10.253398982979883, 21.40698928815439, 61.418012014152666, 56.16524696472406, 62.686259358835585 
80.26832889805543, 10.585056143345561, 21.40671219602612, 61.20443274126922, 55.720303007338096, 62.69095722260323 
79.38099374287994, 10.919753763161934, 21.406424070538417, 60.983523480530145, 55.276913308997834, 62.69566807813816 
78.49381576727612, 11.25741141727126, 21.406124793530672, 60.75552741388975, 54.83513469575625, 62.70038991278476 
77.60673421339395, 11.597948220418024, 21.405814256912905, 60.52067450942732, 54.395022923705845, 62.70512072952409 
76.71968650773248, 11.941282830342423, 21.405492362941832, 60.27918237129023, 53.95663275608343, 62.709858548235815 
75.8326082784136, 12.287333449625287, 21.405159024485187, 60.03125702865237, 53.520018034337085, 62.71460140692998 
74.94543337262148, 12.636017826292306, 21.40481416527408, 59.77709366862405, 53.08523174365807, 62.71934736294802 
74.05809387420679, 12.987253253187484, 21.404457720142968, 59.516877317615986, 52.652326073432, 62.72409449413144 
73.17052012146098, 13.340956566127055, 21.40408963525689, 59.250783475268896, 52.22135247301989, 62.72884089995788 
72.28264072507271, 13.697044140846407, 21.403709868325684, 58.97897870470292, 51.79236170324139, 62.733584702643 
71.39438258628454, 14.055431888754468, 21.403318388804927, 58.70162118251792, 51.36540388389711, 62.73832404820798 
70.50567091527532, 14.416035251510936, 21.40291517808323, 58.418861211681836, 50.94052853763595, 62.74305710751113 
69.6164292497997, 14.778769194443626, 21.402500229655686, 58.130841700176596, 50.517784630444744, 62.74778207724344 
68.72657947412434, 15.143548198824297, 21.402073549283145, 57.837698608028674, 50.09722060901237, 62.75249718088699 
