# MEX_intpoint_lon [deg], MEX_intpoint_lat [deg], MEX_intpoint_angle [deg], TGO_intpoint_lon [deg], TGO_intpoint_lat [deg], TGO_intpoint_angle [deg] 
-139.14113042605152, 19.55004237211668, 21.652979607636023, -27.551490451788833, 42.36724194176806, 62.8702842044123 
-140.03579386385906, 19.15408002897697, 21.65356680756803, -27.84262092340138, 42.772641355634846, 62.86564673168835 
-140.92883246118467, 18.75921677519884, 21.65414232406591, -28.128915897939148, 43.180637927797285, 62.86097553513456 
-141.82034762214883, 18.365546034689427, 21.654705995904163, -28.41027620552559, 43.59117886911355, 62.85627208106845 
-142.7104391846261, 17.97316057383764, 21.65525767601211, -28.686598650204413, 44.00421093816792, 62.85153787756386 
-143.5992053974515, 17.582152523935893, 21.655797231489007, -28.9577757784565, 44.41968041559894, 62.84677447392962 
-144.4867428987606, 17.19261340263475, 21.656324543602125, -29.22369563496111, 44.83753307630195, 62.84198346013849 
-145.37314669531963, 16.804634134394682, 21.6568395077677, -29.484241504763627, 45.25771415938, 62.83716646620653 
-146.25851014271362, 16.41830506990095, 21.657342033515, -29.739291640953162, 45.68016833570737, 62.832325161522604 
-147.1429249262709, 16.033716004409804, 21.657832044433473, -29.988718976888503, 46.10483967295795, 62.827461254129226 
-148.02648104261124, 15.650956194995914, 21.65830947810304, -30.232390821943522, 46.53167159793887, 62.82257648995439 
-148.90926678171613, 15.27011437667272, 21.658774286007866, -30.47016853966908, 46.96060685605601, 62.81767265199512 
-149.79136870942702, 14.891278777359153, 21.659226433433496, -30.701907207190956, 47.39158746772323, 62.81275155945309 
-150.67287165028944, 14.514537131667383, 21.659665899347747, -30.927455254579787, 47.8245546815118, 62.80781506682307 
-151.55385867066585, 14.139976693488169, 21.66009267626543, -31.146654082839834, 48.25944892381808, 62.80286506293454 
-152.43441106205324, 13.767684247351259, 21.660506770097044, -31.359337659068864, 48.696209744809636, 62.79790346994724 
-153.31460832454573, 13.397746118540251, 21.660908199981925, -31.565332087240343, 49.13477576038811, 62.79293224230107 
-154.19452815039332, 13.030248181942005, 21.661296998105705, -31.76445515295248, 49.57508458988567, 62.78795336562173 
-155.07424640761485, 12.665275869612588, 21.661673209502784, -31.956515840374536, 50.0170727891864, 62.782968855582155 
-155.9538371236313, 12.302914177042503, 21.662036891843666, -32.14131381950133, 50.460675778937684, 62.777980756720844 
-156.83337246889263, 11.943247668105663, 21.662388115207836, -32.31863890169965, 50.90582776748686, 62.77299114121858 
-157.71292274047946, 11.586360478677548, 21.662726961842186, -32.48827046139783, 51.35246166814721, 62.7680021076332 
-158.5925563456674, 11.232336318909518, 21.66305352590556, -32.64997682162946, 51.80050901036155, 62.763015779594795 
-159.47233978544946, 10.881258474147446, 21.66336791319961, -32.803514600997225, 52.249899844294745, 62.75803430446143 
-160.3523376380186, 10.533209804484322, 21.663670240886436, -32.94862801947205, 52.70056263834402, 62.753059851937195 
-161.23261254221833, 10.188272742937915, 21.663960637193266, -33.08504816028693, 53.15242416901188, 62.74809461265292 
-162.1132251809779, 9.846529292245911, 21.66423924110477, -33.212492185026356, 53.605409402536374, 62.74314079671159 
-162.99423426475224, 9.508061020272748, 21.664506202043192, -33.33066249885159, 54.05944136762035, 62.73820063219936 
-163.87569651499552, 9.172949054023778, 21.664761679536944, -33.439245862641634, 54.51444101854309, 62.733276363663116 
-164.7576666477014, 8.841274072264278, 21.665005842877914, -33.53791244867253, 54.970327087873976, 62.72837025055678 
-165.64019735704977, 8.513116296742288, 21.665238870768107, -33.62631483630709, 55.427015927939635, 62.72348456565696 
-166.52333929920545, 8.188555482016643, 21.665460950955968, -33.70408694402736, 55.88442134012028, 62.71862159344971 
-167.4071410763194, 7.867670903892919, 21.66567227986293, -33.770842894019175, 56.34245439097111, 62.713783628490035 
-168.2916492207886, 7.550541346472601, 21.66587306220068, -33.82617580541955, 56.801023214076004, 62.70897297373549 
-169.17690817983578, 7.2372450878225925, 21.666063510579647, -33.869656512270524, 57.260032796446694, 62.70419193885527 
-170.0629603004748, 6.92785988427451, 21.66624384510915, -33.90083220220108, 57.7193847481786, 62.69944283851688 
-170.94984581493284, 6.622462953365667, 21.666414292989877, -33.91922497189282, 58.178977053964786, 62.694727990651906 
-171.83760282660396, 6.321130955435968, 21.66657508809914, -33.924330295493824, 58.63870380495246, 62.69004971470193 
-172.72626729661334, 6.023939973897578, 21.666726470569394, -33.915615402347356, 59.09845490930172, 62.6854103298475 
-173.61587303107578, 5.730965494196687, 21.666868686360772, -33.89251756072491, 59.558115779673514, 62.68081215322089 
-174.50645166913426, 5.442282381489806, 21.667001986827938, -33.85444226472404, 60.01756699573454, 62.676257498105095 
-175.39803267186926, 5.157964857059304, 21.667126628282052, -33.800761322150166, 60.47668393962069, 62.67174867212047 
-176.29064331217123, 4.878086473496415, 21.667242871548265, -33.730810842090555, 60.93533640214987, 62.66728797540123 
-177.1843086656717, 4.602720088682461, 21.667350981519437, -33.64388912206304, 61.39338815742042, 62.66287769876356 
-178.0790516028309, 4.331937838602278, 21.66745122670658, -33.539254436145185, 61.85069650327587, 62.658520121867234 
-178.97489278228096, 4.065811109027021, 21.667543878786642, -33.41612272744025, 62.30711176496462, 62.65421751137265 
-179.87185064552602, 3.8044105061066054, 21.66762921214824, -33.27366521070453, 62.76247675917632, 62.64997211909555 
179.23005858689967, 3.5478058259153125, 21.667707503435945, -33.11100589405768, 63.216626215504824, 62.64578618016094 
178.33082091771215, 3.296066022997267, 21.667779031093666, -32.92721903255191, 63.66938615227567, 62.64166191115865 
177.43042457349588, 3.0492591779619853, 21.667844074907745, -32.72132653113759, 64.12057320359523, 62.637601508302296 
176.5288600035559, 2.807452464183128, 21.667902915550457, -32.49229532041109, 64.5699938944424, 62.63360714559392 
175.62611987690426, 2.5707121136573323, 21.66795583412435, -32.23903473566708, 65.01744386064752, 62.629680972996084 
174.72219907728072, 2.339103382082757, 21.66800311170811, -31.960393938437893, 65.4627070107081, 62.62582511461348 
173.8170946961105, 2.112690513220657, 21.668045028904643, -31.65515943014986, 65.90555462660275, 62.62204166688679 
172.9108060233033, 1.8915367026060963, 21.668081865391738, -31.322052720056938, 66.34574440111449, 62.6183326967995 
172.0033345358027, 1.6757040606772993, 21.668113899476097, -30.959728224546105, 66.78301940970205, 62.614700240101314 
171.09468388379722, 1.465253575395975, 21.668141407651238, -30.566771492590288, 67.21710701570878, 62.61114629954894 
170.18485987450904, 1.260245074433825, 21.668164664159885, -30.141697872904206, 67.64771770873176, 62.60767284316715 
169.27387045348095, 1.0607371870033717, 21.668183940561324, -29.68295176257724, 68.07454387735464, 62.60428180253157 
168.36172568328834, 0.866787305413783, 21.668199505304454, -29.188906604916408, 68.4972585192564, 62.600975071075716 
167.44843771960763, 0.678451546434706, 21.668211623306963, -28.65786583614717, 68.91551389403766, 62.597754502423875 
166.53402078457952, 0.4957847125536993, 21.668220555541208, -28.08806501656632, 69.32894012705877, 62.59462190875228 
165.61849113741343, 0.31884025321452625, 21.668226558627413, -27.477675421560946, 69.73714377627705, 62.59157905917998 
164.70186704218435, 0.14767022612580194, 21.66822988443463, -26.82480941111032, 70.13970637862838, 62.58862767819189 
163.78416873278482, -0.01767474126919135, 21.668230779690006, -26.127527941994508, 70.53618299804928, 62.58576944409562 
162.86541837500002, -0.17714549006921299, 21.668229485596978, -25.38385063331034, 70.92610080390362, 62.58300598751416 
161.9456400256845, -0.3306943678449576, 21.66822623746273, -24.59176884052335, 71.3089577164692, 62.58033888991626 
161.02485958902778, -0.47827526612811017, 21.668221264335482, -23.74926223252768, 71.68422116532481, 62.57776968218594 
160.10310476990614, -0.6198436573648411, 21.66821478865222, -22.854319395009657, 72.051327016966, 62.575299843233644 
159.18040502432683, -0.7553566312391506, 21.668207025897008, -21.904962995139318, 72.40967873968133, 62.57293079865021 
158.25679150698232, -0.8847729302714565, 21.66819818427072, -20.89928002872353, 72.7586468864156, 62.570663919405376 
157.3322970159412, -1.008052984598461, 21.668188464372296, -19.83545762100353, 73.09756898961541, 62.56850052059266 
156.40695593451457, -1.1251589458410722, 21.668178058892185, -18.711824754076673, 73.4257499752328, 62.56644186022244 
155.48080417034566, -1.236054719968611, 21.668167152318233, -17.526900134043828, 73.74246321518478, 62.56448913806395 
154.55387909178242, -1.3407059990688954, 21.668155920654453, -16.279446175837876, 74.04695234729544, 62.56264349453859 
153.62621946160252, -1.4390802919359502, 21.668144531153096, -14.968528761239286, 74.33843399736904, 62.56090600966538 
152.69786536817188, -1.531146953389242, 21.66813314206026, -13.593582007911344, 74.61610153745394, 62.55927770206025 
151.7688581541269, -1.6168772122412176, 21.668121902375507, -12.154476773962763, 74.87913000516323, 62.55775952799007 
150.8392403426822, -1.696244197832819, 21.66811095162572, -10.65159102469037, 75.12668228858671, 62.55635238048325 
149.90905556167448, -1.7692229650601328, 21.66810041965352, -9.085879532711479, 75.35791664748504, 62.55505708849724 
148.97834846546394, -1.8357905178190403, 21.668090426420548, -7.458939716071433, 75.57199559229247, 62.55387441614497 
148.0471646548222, -1.8959258307987958, 21.66808108182582, -5.773069808788148, 75.76809607725201, 62.55280506198031 
147.11555059494665, -1.949609869559913, 21.668072485539486, -4.031315092059442, 75.94542088373416, 62.55184965834428 
146.18355353174758, -1.9968256088363485, 21.66806472685208, -2.2374976926647268, 76.10321097764539, 62.55100877077222 
145.25122140656254, -2.037558049006996, 21.668057884539607, -0.39622557958161253, 76.24075852662646, 62.55028289746314 
144.3186027694606, -2.0717942306866997, 21.668052026744537, 1.4871230547989767, 76.35742016690826, 62.54967246881184 
143.3857466913038, -2.099523247392508, 21.66804721087293, 3.406442810007556, 76.45263002681139, 62.54917784700411 
142.45270267473975, -2.120736256246484, 21.66804348350775, 5.354972774203796, 76.52591195555476, 62.54879932567619 
141.51952056430437, -2.135426486682446, 21.668040880338623, 7.325396314346196, 76.57689038327192, 62.548537129638234 
140.58625045581715, -2.143589247129754, 21.66803942610797, 9.309966286783284, 76.60529925928532, 62.548391414662554 
139.65294260525496, -2.1452219296536597, 21.668039134573668, 11.300650923939198, 76.61098858454073, 62.54836226733695 
138.71964733729328, -2.1403240125379823, 21.66804000848834, 13.289293852300329, 76.59392816843369, 62.54844970498305 
137.78641495370397, -2.1288970608020157, 21.66804203959518, 15.267780411127033, 76.55420839141512, 62.54865367564006 
136.85329564180128, -2.110944724650147, 21.6680452086404, 17.228201854252163, 76.49203792847496, 62.54897405811361 
135.92033938312545, -2.086472735858965, 21.66804948540229, 19.163009215497645, 76.40773856701837, 62.54941066209005 
134.98759586255397, -2.0554889021129745, 21.668054828736782, 21.065149572269174, 76.30173741714961, 62.54996322831568 
134.0551143780274, -2.0180030993064193, 21.66806118663956, 22.928179012805916, 76.17455694658766, 62.55063142884086 
133.12294375107462, -1.9740272618347476, 21.668068496324505, 24.74634858085788, 76.02680336471262, 62.55141486732876 
132.19113223831755, -1.9235753709056522, 21.66807668431851, 26.514661580891982, 75.85915392512284, 62.552313079427904 
131.25972744413286, -1.8666634409052008, 21.66808566657243, 28.228902630797435, 75.67234371447304, 62.553325533208664 
130.32877623464043, -1.8033095038607507, 21.66809534858806, 29.885640549433873, 75.46715245356268, 62.55445162966269 
129.39832465318455, -1.7335335920475086, 21.66810562556102, 31.482208436826927, 75.24439176458431, 62.555690703264524 
128.46841783746552, -1.6573577187913386, 21.668116382539214, 33.01666509622157, 75.00489326766586, 62.55704202259528 
127.53909993847311, -1.5748058575252093, 21.668127494596867, 34.48774227842249, 74.74949777161443, 62.558504791026735 
126.61041404136444, -1.485903919161731, 21.668138827023686, 35.894782168125225, 74.47904572769858, 62.560078147465504 
125.68240208842067, -1.390679727848593, 21.668150235529108, 37.237669174974975, 74.1943690285398, 62.56176116715636 
124.7551048042086, -1.2891629951781287, 21.668161566461123, 38.51675954193955, 73.89628416119723, 62.56355286254315 
123.82856162306223, -1.1813852929259234, 21.668172657039626, 39.732811635431304, 73.58558666634477, 62.56545218418667 
122.90281061899118, -1.0673800243972345, 21.668183335603846, 40.88691911345848, 73.26304681410683, 62.567458021738275 
121.97788843811168, -0.9471823944628891, 21.6681934218735, 41.980448536924605, 72.92940638030402, 62.569569204967465 
121.05383023368604, -0.820829378369508, 21.668202727223484, 43.014982431322785, 72.5853763924121, 62.57178450484299 
120.13066960384562, -0.6883596894111806, 21.668211054971554, 43.992268340005594, 72.23163570996024, 62.57410263466495 
119.20843853206213, -0.5498137455520049, 21.668218200678705, 44.91417404075967, 71.86883030689386, 62.57652225124778 
118.2871673304209, -0.4052336350906075, 21.668223952461908, 45.782648819933435, 71.49757313134307, 62.57904195615143 
117.36688458573924, -0.25466308145924205, 21.668228091318618, 46.59969050250618, 71.11844442935356, 62.58166029695976 
116.44761710856316, -0.09814740725099531, 21.668230391462853, 47.367317809165684, 70.73199243192967, 62.584375768604545 
115.52938988506362, 0.06426650243043862, 21.66823062067222, 48.08754753900415, 70.33873431806653, 62.587186814733094 
114.61222603184518, 0.23253023720389634, 21.668228540645423, 48.762376045942624, 69.93915737949439, 62.59009182911836 
113.696146753668, 0.40659389913200966, 21.668223907370038, 49.39376447709945, 69.53372032509729, 62.59308915710884 
112.7811713040761, 0.5864061408362269, 21.66821647149965, 49.98362726254021, 69.12285467408165, 62.5961770971176 
111.86731694891405, 0.7719142039118511, 21.668205978740264, 50.5338233806073, 68.70696619681084, 62.599353902147605 
110.95459893270576, 0.9630639575503207, 21.668192170245195, 51.046149965497925, 68.28643637075453, 62.60261778135205 
110.0430304478607, 1.1597999372769234, 21.668174783018124, 51.52233786964006, 67.86162382626961, 62.605966901627625 
109.13262260666384, 1.3620653837140637, 21.66815355032353, 51.96404883966317, 67.432865763024, 62.60939938923879 
108.22338441599909, 1.569802281281396, 21.668128202104345, 52.3728740093221, 67.0004793229134, 62.61291333147085 
107.31532275474731, 1.7829513967465564, 21.668098465405812, 52.750333454334, 66.56476290942996, 62.61650677831046 
106.40844235379477, 2.0014523175420655, 21.668064064805424, 53.097876592007175, 66.12599744675019, 62.62017774415083 
105.50274577858062, 2.2252434897666027, 21.668024722848063, 53.41688324247517, 65.68444757443653, 62.623924209520126 
104.59823341410706, 2.4542622557911216, 21.667980160485957, 53.70866519826607, 65.24036277570343, 62.62774412283061 
103.69490345233008, 2.688444891393319, 21.667930097522802, 53.97446817499231, 64.79397843878313, 62.63163540214708 
102.79275188184512, 2.9277266423464225, 21.66787425306146, 54.21547403840466, 64.34551685212423, 62.635595936971875 
101.89177247977732, 3.1720417603915205, 21.667812345954662, 54.43280322224022, 63.895188135040414, 62.639623590044785 
100.99195680578241, 3.421323538525617, 21.66774409525812, 54.62751726755909, 63.4431911060588, 62.64371619915551 
100.09329419806284, 3.6755043455405962, 21.66766922068552, 54.800621427954106, 62.989714091651834, 62.64787157896727 
99.19577177129958, 3.9345156597517588, 21.667587443064615, 54.95306729646868, 62.534935678311946, 62.65208752284851 
98.29937441640006, 4.1982881018574885, 21.66749848479407, 55.0857554195765, 62.07902541108359, 62.65636180471139 
97.40408480195995, 4.46675146687527, 21.66740207030024, 55.19953787144416, 61.6221444417285, 62.660692180854845 
96.50988337733747, 4.73983475510211, 21.667297926493468, 55.29522076816277, 61.16444612969204, 62.66507639181012 
95.61674837723669, 5.017466202051258, 21.6671857832231, 55.37356670691583, 60.70607659897682, 62.66951216418645 
94.72465582769883, 5.299573307319726, 21.66706537373083, 55.43529711933798, 60.24717525393413, 62.67399721251579 
93.83357955339923, 5.586082862345091, 21.66693643510164, 55.48109453177806, 59.787875256858136, 62.67852924109353 
92.94349118615042, 5.876920977012543, 21.666798708711813, 55.51160472794669, 59.328303970129845, 62.68310594581381 
92.05436017451237, 6.172013105076855, 21.666651940673393, 55.52743881162639, 58.868583365506325, 62.687725015997636 
91.16615379441322, 6.471284068366817, 21.66649588227452, 55.52917516884833, 58.40883040299675, 62.692384136211444 
90.27883716068702, 6.77465807974256, 21.666330290415107, 55.517361330279385, 57.94915738161168, 62.69708098807451 
89.39237323943604, 7.082058764779547, 21.66615492803718, 55.492515735588164, 57.489672264118475, 62.70181325205332 
88.50672286113019, 7.393409182155377, 21.665969564549485, 55.45512940232574, 57.030478977788, 62.70657860924096 
87.62184473435806, 7.708631842718866, 21.665773976245582, 55.40566750241733, 56.571677692973566, 62.711374743119826 
86.73769546014893, 8.027648727222942, 21.665567946715154, 55.34457084975324, 56.11336508122882, 62.71619934130599 
85.85422954678786, 8.35038130270625, 21.66535126724765, 55.27225730262683, 55.655634554540846, 62.72105009727332 
84.97139942505193, 8.676750537509944, 21.665123737228125, 55.18912308491999, 55.19857648713491, 62.725924712055665 
84.08915546379816, 9.00667691491951, 21.664885164524353, 55.09554403000539, 54.74227842119341, 62.73082089592582 
83.20744598584042, 9.340080445422926, 21.664635365865028, 54.991876751339326, 54.286825257726065, 62.73573637004899 
82.32621728405617, 9.67688067757914, 21.66437416720839, 54.87845974367249, 53.8322994337302, 62.74066886811007 
81.4454136376697, 10.01699670749299, 21.66410140410076, 54.75561441872232, 53.37878108668846, 62.74561613791246 
80.56497732866397, 10.360347186894149, 21.663816922024676, 54.62364607903841, 52.92634820736798, 62.750575942947364 
79.68484865827821, 10.706850329820487, 21.663520576735966, 54.4828448336606, 52.475076781805846, 62.755546063931995 
78.80496596355522, 11.056423917906994, 21.663212234589444, 54.33348645902344, 52.025040923295386, 62.7605243003154 
77.92526563390665, 11.408985304284272, 21.662891772852756, 54.175833208406246, 51.576312995120425, 62.76550847175049 
77.04568212767266, 11.764451416091205, 21.66255908000791, 54.0101345730691, 51.12896372472496, 62.770496419531135 
76.16614798865655, 12.122738755608859, 21.66221405604018, 53.836627998053935, 50.68306230994909, 62.77548600799273 
75.2865938626231, 12.483763400023648, 21.66185661271389, 53.65553955547032, 50.238676517910925, 62.7804751258758 
74.40694851375521, 12.847440999829425, 21.661486673834794, 53.46708457792806, 49.79587277706759, 62.78546168765037 
73.52713884106949, 13.213686775879772, 21.661104175498597, 53.271468254625596, 49.35471626294404, 62.79044363480122 
72.64708989480037, 13.582415515102634, 21.660709066325346, 53.068886192454734, 48.91527097798023, 62.795418937072334 
71.76672489276694, 13.953541564891387, 21.66030130767938, 52.85952494434001, 48.477599825909486, 62.800385593669354 
70.88596523674634, 14.326978826187158, 21.659880873874457, 52.6435625068944, 48.04176468104856, 62.80534163441991 
70.00473052888294, 14.702640745269015, 21.65944775236383, 52.42116878934307, 47.60782645284847, 62.81028512089005 
