# MEX_intpoint_lon [deg], MEX_intpoint_lat [deg], MEX_intpoint_angle [deg], TGO_intpoint_lon [deg], TGO_intpoint_lat [deg], TGO_intpoint_angle [deg] 
-139.02234741260472, 19.52158533708598, 21.57229568604725, -27.62034523448449, 43.33643347437973, 62.8496133480645 
-139.9196451133698, 19.129979513543393, 21.57287341081648, -27.927125532266405, 43.73804641287397, 62.845014284764765 
-140.8153190741606, 18.739448786536016, 21.57343974864451, -28.22932355332899, 44.14229760690314, 62.84038327169201 
-141.709468892288, 18.350086152730476, 21.57399454074177, -28.526844841125413, 44.549136961383375, 62.83572176119051 
-142.60219265361198, 17.961983953975547, 21.5745376421138, -28.819591031319092, 44.9585139908232, 62.8310312452214 
-143.4935869081438, 17.5752338986531, 21.575068921576573, -29.10745962130434, 45.37037779726517, 62.826313254848785 
-144.38374664684184, 17.189927082111335, 21.57558826175499, -29.390343726511922, 45.78467704629756, 62.82156935967853 
-145.27276527946145, 16.806154006143707, 21.57609555906488, -29.668131822590148, 46.20135994101917, 62.81680116724964 
-146.16073461332923, 16.424004597478373, 21.57659072367843, -29.940707472482973, 46.62037419383075, 62.81201032237883 
-147.04774483292115, 16.043568225245888, 21.5770736794731, -30.207949037351483, 47.041666995915286, 62.80719850645803 
-147.93388448013516, 15.664933717393835, 21.577544363964257, -30.469729370204604, 47.46518498425756, 62.802367436706014 
-148.81924043515582, 15.288189376019705, 21.578002728221488, -30.72591549101736, 47.89087420604043, 62.79751886537371 
-149.70389789782044, 14.913422991594532, 21.578448736768962, -30.976368242021437, 48.318680080240455, 62.792654578904305 
-150.58794036940293, 14.540721856051436, 21.578882367469646, -31.220941921751237, 48.74854735623069, 62.78777639704818 
-151.4714496347408, 14.170172774715056, 21.579303611394067, -31.459483896318808, 49.18042006918023, 62.78288617193358 
-152.3545057446399, 13.80186207704888, 21.579712472673258, -31.691834186273926, 49.614241492022344, 62.77798578709365 
-153.23718699849834, 13.435875626199298, 21.580108968336592, -31.917825027277924, 50.049954083741525, 62.77307715645003 
-154.1195699271, 13.072298827316224, 21.58049312813438, -32.13728040268339, 50.48749943370789, 62.7681622232544 
-155.00172927553533, 12.71121663463193, 21.580864994345767, -32.350015545964354, 50.926818201762046, 62.76324295898815 
-155.8837379862153, 12.3527135572805, 21.581224621571977, -32.55583641078387, 51.367850053726954, 62.75832136222143 
-156.76566718195008, 11.996873663842218, 21.58157207651538, -32.7545391063149, 51.81053359199274, 62.7533994574322 
-157.6475861490742, 11.643780585598181, 21.581907437744533, -32.945909295249265, 52.25480628078848, 62.74847929378619 
-158.52956232060336, 11.29351751848194, 21.582230795445668, -33.129721551732956, 52.70060436571853, 62.74356294387897 
-159.41166125941817, 10.946167223716303, 21.58254225116083, -33.305738676258066, 53.14786278710156, 62.73865250244088 
-160.2939466414745, 10.601812027124945, 21.582841917513097, -33.47371096431858, 53.5965150866072, 62.73375008500597 
-161.1764802390478, 10.260533817109854, 21.583129917919322, -33.633375425400025, 54.04649330663756, 62.72885782654622 
-162.0593219040248, 9.92241404128713, 21.583406386290612, -33.78445494862197, 54.49772788184845, 62.72397788007189 
-162.94252955126228, 9.587533701775452, 21.583671466721086, -33.926657411086374, 54.95014752214736, 62.71911241519956 
-163.8261591420383, 9.255973349132802, 21.583925313165324, -34.05967472470549, 55.40367908644264, 62.71426361668877 
-164.7102646676276, 8.92781307493917, 21.584168089104825, -34.183181816990135, 55.85824744634781, 62.70943368294884 
-165.59489813303844, 8.603132503024403, 21.584399967204092, -34.2968355409761, 56.31377533896973, 62.704624824517154 
-166.48010954095326, 8.282010779342443, 21.58462112895662, -34.40027350915176, 56.770183207824225, 62.69983926250987 
-167.36594687592162, 7.964526560495033, 21.584831764321418, -34.49311284593201, 57.22738903083185, 62.69507922704749 
-168.25245608885825, 7.650758000910158, 21.5850320713504, -34.57494885290073, 57.685308134244465, 62.69034695565545 
-169.1396810819043, 7.3407827386824325, 21.58522225580727, -34.64535358072708, 58.14385299124302, 62.68564469164241 
-170.0276636937152, 7.034677880085043, 21.58540253077833, -34.70387430135414, 58.60293300382552, 62.68097468245701 
-170.91644368524135, 6.732519982764952, 21.585573116275725, -34.750031873773345, 59.06245426647136, 62.67633917802516 
-171.80605872607453, 6.434385037635895, 21.585734238833652, -34.78331899644704, 59.52231930992327, 62.6717404290691 
-172.69654438143408, 6.1403484494856775, 21.5858861310981, -34.803198339241085, 59.9824268232701, 62.66718068541024 
-173.5879340998735, 5.850485016317114, 21.586029031410643, -34.80910054760014, 60.442671352342145, 62.66266219425727 
-174.48025920178918, 5.564868907444924, 21.586163183386763, -34.80042211166728, 60.9029429722439, 62.65818719848132 
-175.37354886881764, 5.283573640372957, 21.58628883548938, -34.7765230931494, 61.36312693164863, 62.65375793487982 
-176.2678301342094, 5.0066720564796965, 21.58640624059809, -34.73672470300243, 61.823103266261775, 62.649376632431185 
-177.16312787427086, 4.734236295542399, 21.586515655574566, -34.68030672350825, 62.28274637862951, 62.64504551054158 
-178.0594648009675, 4.4663377691333865, 21.586617340824965, -34.60650476910118, 62.74192458122161, 62.64076677728614 
-178.95686145578253, 4.203047132925031, 21.586711559859584, -34.51450738145826, 63.200499599459285, 62.63654262764627 
-179.855336204928, 3.944434257943062, 21.586798578850622, -34.403452955989465, 63.65832603108645, 62.63237524174468 
179.24509476399544, 3.690568200810908, 21.58687866618847, -34.272426499075856, 64.11525075800633, 62.62826678308059 
178.3444174437915, 3.441517173030827, 21.586952092037077, -34.12045621834873, 64.57111230642158, 62.62421939676648 
177.44262000781825, 3.1973485093511016, 21.58701912788923, -33.946509952165584, 65.02574015084119, 62.62023520776865 
176.53969280839587, 2.958128635271191, 21.587080046121955, -33.74949144943163, 65.47895395725197, 62.61631631915334 
175.63562837337855, 2.723923033740434, 21.58713511955291, -33.528236517306134, 65.93056276051749, 62.612464810340576 
174.7304214007938, 2.4947962111086133, 21.587184620998283, -33.281509062430615, 66.38036407087483, 62.608682735367275 
173.8240687514584, 2.2708116623900345, 21.587228822832703, -33.00799706149849, 66.8281429042754, 62.60497212116223 
172.91656943947956, 2.052031835905675, 21.58726799655178, -32.70630850969094, 67.27367073128963, 62.601334965834184 
172.00792462055523, 1.8385180973709212, 21.5873024123379, -32.37496741124753, 67.71670433940527, 62.59777323697552 
171.09813757798963, 1.6303306934994657, 21.587332338629757, -32.01240989581472, 68.15698460384463, 62.59428886998326 
170.18721370634475, 1.427528715196271, 21.587358041696277, -31.616980567892668, 68.59423516257051, 62.590883766399436 
169.2751604926529, 1.2301700604157306, 21.5873797852154, -31.186929225426837, 69.02816099202137, 62.58755979227252 
168.36198749512164, 1.038311396763103, 21.587397829858382, -30.720408118170788, 69.45844688141047, 62.58431877654228 
167.44770631926588, 0.8520081239199699, 21.587412432880008, -30.215469957713587, 69.88475580526179, 62.581162509449435 
166.532330591411, 0.6713143359764993, 21.58742384771547, -29.67006693983046, 70.30672719637897, 62.578092740972615 
165.6158759295152, 0.4962827837551604, 21.58743232358421, -29.082051096781992, 70.72397512482615, 62.57511117929373 
164.6983599112674, 0.32696483721248387, 21.58743810510146, -28.44917636283085, 71.13608639294176, 62.572219489294596 
163.77980203942525, 0.16341044800675628, 21.58744143189778, -27.769102810626464, 71.54261856213692, 62.56941929108536 
162.86022370436515, 0.005668112320884567, 21.587442538247327, -27.039403598624943, 71.94309793450685, 62.56671215856788 
161.93964814382392, -0.14621516596938386, 21.587441652705095, -26.25757525875347, 72.33701752137638, 62.564099618034675 
161.01810039982317, -0.29219391169095676, 21.587438997753875, -25.42105204603182, 72.72383504208379, 62.56158314680593 
160.09560727277366, -0.43222421424133345, 21.587434789461117, -24.52722516275201, 73.10297100982648, 62.55916417190578 
159.17219727276822, -0.5662637628375539, 21.587429237146395, -23.573467751335194, 73.47380697742837, 62.55684406877979 
158.2479005680813, -0.6942718810549741, 21.587422543059755, -22.5571666109683, 73.83568403449263, 62.55462416005507 
157.32274893090224, -0.8162095605653114, 21.587414902071448, -21.475761618254488, 74.18790166842147, 62.552505714344655 
156.39677568034116, -0.9320394939840588, 21.58740650137338, -20.326793801352878, 74.52971712474417, 62.55048994509759 
155.47001562275415, -1.0417261067388819, 21.587397520192848, -19.107962905457132, 74.8603454261814, 62.54857800949621 
154.542504989447, -1.1452355878719904, 21.587388129518644, -17.817195065583526, 75.1789602333776, 62.5467710074021 
153.61428137182546, -1.2425359196914572, 21.587378491840248, -16.45272083839142, 75.48469575100466, 62.545069980351855 
152.68538365407045, -1.3335969061887256, 21.587368760900148, -15.013163306696592, 75.77664989786545, 62.543475910604016 
151.75585194342656, -1.418390200142139, 21.587359081459763, -13.497635233296508, 76.05388896468321, 62.541989720238625 
150.82572749820267, -1.4968893288293623, 21.587349589079302, -11.905843293979673, 76.31545397361474, 62.540612270310184 
149.89505265359134, -1.5690697182747562, 21.587340409911743, -10.238196277386312, 76.56036892382716, 62.539344360055246 
148.96387074542477, -1.634908715961352, 21.58733166051132, -8.495912852839453, 76.78765105247928, 62.53818672615594 
148.0322260319926, -1.6943856119412402, 21.58732344765669, -6.681123175339927, 76.99632315594151, 62.537140042059775 
147.10016361405528, -1.7474816582820687, 21.58731586818901, -4.796957372831254, 77.18542790017719, 62.53620491735728 
146.16772935319554, -1.7941800867922142, 21.587309008865258, -2.847613048990724, 77.35404390378628, 62.53538189721778 
145.2349697886564, -1.834466124971626, 21.58730294622682, -0.838393573269213, 77.5013032093587, 62.5346714618844 
144.30193205282197, -1.868327010140721, 21.587297746483646, 1.2242906447806787, 77.62640958166195, 62.534074026228474 
143.36866378550317, -1.8957520017046605, 21.58729346541407, 3.332964304485794, 77.72865690392355, 62.53358993936463 
142.43521304719488, -1.9167323915160535, 21.58729014828046, 5.479176759349887, 77.80744680957383, 62.5332194843264 
141.5016282314775, -1.9312615123045305, 21.587287829760776, 7.653639557177353, 77.86230461092627, 62.53296287780329 
140.56795797673786, -1.939334744147628, 21.587286533896158, 9.846408555499123, 77.89289258955172, 62.53282026993905 
139.63425107738894, -1.94094951896321, 21.58728627405457, 12.047103008899018, 77.89901980811038, 62.53279174419229 
138.70055639476922, -1.9361053230097394, 21.587287052910618, 14.24515026569503, 77.88064778985026, 62.5328773172585 
137.766922767905, -1.924803697386693, 21.587288862441497, 16.430041967789293, 77.8378916747182, 62.533076939054865 
136.8333989243179, -1.907048236533653, 21.587291683939117, 18.591586379986357, 77.77101677136628, 62.53339049276659 
135.90003339106198, -1.8828445847326296, 21.58729548803839, 20.720141903939016, 77.68043074467388, 62.53381779495576 
134.96687440617146, -1.8522004306243107, 21.587300234761603, 22.806818882091232, 77.5666719692291, 62.53435859573178 
134.0339698306996, -1.8151254997549822, 21.58730587357884, 24.843640117106524, 77.43039480661672, 62.535012578983874 
133.10136706152645, -1.7716315451768416, 21.587312343484413, 26.82365458063234, 77.2723527060395, 62.535779362674695 
132.1691129451091, -1.7217323361302048, 21.58731957308917, 28.741002955184634, 77.09338007609608, 62.5366584991951 
131.23725369234415, -1.6654436448419419, 21.587327480728465, 30.590937398562254, 76.89437383700971, 62.537649475779425 
130.3058347947075, -1.6027832314799701, 21.58733597458585, 32.36980084925076, 76.67627545472804, 62.53875171498096 
129.37490094182974, -1.5337708273089332, 21.587344952832115, 34.07497310706031, 76.44005410463032, 62.539964575206454 
128.4444959406606, -1.4584281160974697, 21.587354303779644, 35.704791816370445, 76.18669143766405, 62.54128735130965 
127.51466263636723, -1.3767787138322845, 21.587363906051802, 37.25845648363797, 75.91716824720783, 62.542719275242675 
126.58544283510463, -1.2888481467989186, 21.58737362876714, 38.735922993429725, 75.63245317706647, 62.54425951676443 
125.65687722878846, -1.1946638280935444, 21.587383331738206, 40.137794991009784, 75.33349347980662, 62.54590718420509 
124.72900532199087, -1.09425503263402, 21.58739286568465, 41.46521719893329, 75.02120773446694, 62.54766132528619 
123.80186536107206, -0.987652870742498, 21.587402072460375, 42.71977441016696, 74.69648036333919, 62.54952092799426 
122.87549426565074, -0.8748902603750429, 21.58741078529445, 43.9033986767238, 74.36015774578559, 62.551484921507836 
121.94992756250622, -0.7560018980770298, 21.5874188290454, 45.01828616452193, 74.01304570806423, 62.553552177176314 
121.0251993219962, -0.6310242287458113, 21.587426020468627, 46.066824303333306, 73.65590816648654, 62.555721509549166 
120.10134209706354, -0.4999954142845771, 21.587432168496466, 47.05152922560078, 73.28946671177982, 62.5579916774545 
119.17838686489492, -0.36295530123346603, 21.587437074530715, 47.974993040446, 72.91440094082219, 62.5603613851257 
118.25636297128526, -0.21994538746568523, 21.58744053274707, 48.839840200202936, 72.53134936438833, 62.56282928337406 
117.3352980777498, -0.07100878803783126, 21.58744233041111, 49.648692053959955, 72.1409107435211, 62.56539397080708 
116.41521811141769, 0.08380979971536759, 21.58744224820548, 50.40413861482248, 71.7436457307653, 62.56805399508972 
115.49614721772899, 0.24446413175088239, 21.587440060567776, 51.10871656761004, 71.34007871457156, 62.5708078542476 
114.57810771594856, 0.4109064534605512, 21.587435536038644, 51.76489258895755, 70.9306997850265, 62.5736539980108 
113.66112005749976, 0.5830875362961006, 21.587428437619845, 52.37505112468089, 70.51596675638875, 62.57659082919587 
112.74520278711242, 0.7609567147849512, 21.58741852314143, 52.94148585663438, 70.09630719667238, 62.579616705125076 
111.83037250676958, 0.9444619238460922, 21.587405545638017, 53.466394183769125, 69.67212042684318, 62.582729939080565 
110.91664384242951, 1.1335497363165323, 21.587389253733217, 53.951874133368285, 69.24377946229673, 62.58592880179213 
110.00402941349103, 1.3281654005993793, 21.587369392032087, 54.39992320449478, 68.811632877439, 62.58921152295647 
109.0925398049618, 1.5282528783466232, 21.587345701520782, 54.81243872426572, 68.37600658065892, 62.59257629278615 
108.18218354228311, 1.7337548820906905, 21.587317919973096, 55.19121936760675, 67.93720549203972, 62.596021263586714 
107.2729670687557, 1.9446129127412775, 21.587285782363292, 55.53796755240674, 67.49551512004008, 62.599544551359514 
106.36489472550697, 2.1607672968654494, 21.587249021284567, 55.8542924747816, 67.05120303630703, 62.60314423742884 
105.45796873393196, 2.382157223671737, 21.587207367372844, 56.14171359407513, 66.60452024994252, 62.60681837009126 
104.55218918053671, 2.6087207816209923, 21.587160549735074, 56.4016644150443, 66.15570248409652, 62.610564966285246 
103.64755400410607, 2.8403949945895803, 21.587108296381643, 56.63549644622568, 65.70497135882702, 62.6143820132789 
102.7440589851153, 3.0771158575130677, 21.58705033466228, 56.84448323958404, 65.25253548486585, 62.618267470374576 
101.84169773729967, 3.318818371441307, 21.586986391704926, 57.02982443798146, 64.79859147333904, 62.62221927062736 
100.94046170129346, 3.5654365779390966, 21.586916194856837, 57.19264977448508, 64.34332486668696, 62.62623532257638 
100.0403401402474, 3.816903592768963, 21.58683947212761, 57.33402298168727, 63.88691099606564, 62.630313511986586 
99.14132013733015, 4.073151638796417, 21.586755952633272, 57.454945580596046, 63.42951577043097, 62.63445170359895 
98.24338659501967, 4.334112078060433, 21.58666536704104, 57.556360527743244, 62.97129640234644, 62.638647742887414 
97.3465222360864, 4.599715442955686, 21.5865674480141, 57.63915570635917, 62.512402075337796, 62.64289945782045 
96.45070760617243, 4.869891466475673, 21.58646193065582, 57.70416725311806, 62.05297455736722, 62.64720466062535 
95.55592107786798, 5.144569111469494, 21.586348552952778, 57.752182716357446, 61.593148764726784, 62.65156114955332 
94.6621388561888, 5.42367659886778, 21.586227056216206, 57.7839440450527, 61.13305328037159, 62.65596671064358 
93.76933498535698, 5.707141434836899, 21.58609718552091, 57.80015041038708, 60.6728108304315, 62.6604191194843 
92.87748135679034, 5.994890436823025, 21.58595869014157, 57.80146086365736, 60.212538722365636, 62.664916142968856 
91.98654771820607, 6.286849758451355, 21.58581132398537, 57.78849683563071, 59.75234924795845, 62.669455541045316 
91.09650168374627, 6.582944913248418, 21.58565484602076, 57.761844483428774, 59.29235005410235, 62.67403506845744 
90.20730874503602, 6.883100797158189, 21.58548902070159, 57.722056891647895, 58.83264448407405, 62.67865247647533 
89.31893228308616, 7.187241709826223, 21.58531361838609, 57.6696561348019, 58.37333189178635, 62.68330551461405 
88.43133358095712, 7.49529137462798, 21.585128415750194, 57.60513520835536, 57.914507931289265, 62.68799193233835 
87.54447183710217, 7.80717295742106, 21.584933196194644, 57.52895983564355, 57.456264823600165, 62.69270948075198 
86.6583041793132, 8.122809084002942, 21.584727750245307, 57.441570157892926, 56.998691602763685, 62.69745591426961 
85.77278567919505, 8.44212185625912, 21.584511875946202, 57.343382314387014, 56.541874342877634, 62.70222899227006 
84.88786936709914, 8.765032866988193, 21.584285379244758, 57.234789919595386, 56.08589636766952, 62.70702648072905 
84.00350624745138, 9.091463213393553, 21.58404807436869, 57.11616544381284, 55.63083844406944, 62.71184615382983 
83.11964531441357, 9.42133350923311, 21.583799784194174, 56.98786150355902, 55.17677896109869, 62.71668579555031 
82.23623356782302, 9.754563895620743, 21.583540340604568, 56.85021206767561, 54.72379409527705, 62.72154320122529 
81.35321602935933, 10.091074050475653, 21.583269584839453, 56.70353358473741, 54.271957963645725, 62.726416179081774 
80.47053575889355, 10.430783196616984, 21.582987367833503, 56.54812603707274, 53.82134276540715, 62.73130255174693 
79.58813387097882, 10.77361010850403, 21.58269355054446, 56.384273926371776, 53.37201891309416, 62.73620015772633 
78.70594955144922, 11.119473117623114, 21.582388004270168, 56.21224719555212, 52.92405515410151, 62.74110685285186 
77.82392007409717, 11.468290116524907, 21.582070610953973, 56.03230209125286, 52.47751868333954, 62.746020511697665 
76.9419808174077, 11.819978561516903, 21.581741263478175, 55.84468197104205, 52.03247524770383, 62.75093902896292 
76.06006528133211, 12.174455474017932, 21.581399865945095, 55.6496180591499, 51.58898924299371, 62.755860320820574 
75.17810510409169, 12.531637440582736, 21.581046333945444, 55.44733015428139, 51.14712380385848, 62.76078232623031 
74.29603007900691, 12.891440611606285, 21.58068059481351, 55.23802729281772, 50.706940887299375, 62.765703008215446 
73.41376817135534, 13.253780698719172, 21.58030258786901, 55.02190837048636, 50.26850135021036, 62.77062035510182 
72.53124553526767, 13.618572970886316, 21.579912264645017, 54.7991627253635, 49.83186502139935, 62.77553238171853 
71.64838653067831, 13.985732249223156, 21.579509589101864, 54.569970684870746, 49.397090768493705, 62.78043713055893 
70.76511374035435, 14.355172900544423, 21.57909453782661, 54.334504079239224, 48.96423656009958, 62.78533267290143 
69.88134798703352, 14.726808829662192, 21.578667100217825, 54.09292672373811, 48.53335952355359, 62.79021710988894 
68.99700835070966, 15.100553470451072, 21.5782272786554, 53.84539487180044, 48.1045159985766, 62.79508857356645 
