# MEX_intpoint_lon [deg], MEX_intpoint_lat [deg], MEX_intpoint_angle [deg], TGO_intpoint_lon [deg], TGO_intpoint_lat [deg], TGO_intpoint_angle [deg] 
-138.08388208092705, 19.28601696957483, 20.96485903979314, -27.417992832698665, 50.375552557209524, 62.705097329818756 
-139.0003095258971, 18.92837580678505, 20.96536567764405, -27.8743393591475, 50.73580462435233, 62.701078926206456 
-139.91514683619235, 18.571632039633457, 20.96586307064624, -28.328852524473465, 51.09877748820437, 62.69704140483932 
-140.8284795372219, 18.215874667342135, 20.966351078406944, -28.781511774080286, 51.46443796611312, 62.692986024147366 
-141.74039204377422, 17.86119207085596, 20.9668295717297, -29.232295661939805, 51.83275285240991, 62.6889140665826 
-142.65096762611344, 17.50767202617599, 20.9672984326301, -29.681181774766785, 52.20368892117345, 62.68482683818792 
-143.56028837755747, 17.15540171712461, 20.967757554337975, -30.128146651231287, 52.5772129287312, 62.68072566813638 
-144.46843518342422, 16.804467747501526, 20.96820684128612, -30.573165695795808, 52.953291615892, 62.676611908241384 
-145.375487691243, 16.45495615259162, 20.96864620908547, -31.01621308672393, 53.33189170990358, 62.67248693243786 
-146.28152428213076, 16.10695240998834, 20.969075584487115, -31.45726167776147, 53.71297992612714, 62.668352136234724 
-147.18662204324383, 15.760541449697854, 20.969494905330766, -31.896282892942057, 54.09652296942059, 62.66420893613898 
-148.09085674121891, 15.415807663491663, 20.969904120480248, -32.333246613911676, 54.482487535221175, 62.66005876905145 
-148.9943027965255, 15.07283491347694, 20.970303189745824, -32.768121059105894, 54.87084031031676, 62.65590309163502 
-149.89703325865864, 14.731706539855805, 20.970692083793573, -33.20087265404322, 55.261547973294164, 62.651743379655194 
-150.79911978210575, 14.392505367846773, 20.971070784042073, -33.631465891920875, 55.65457719465112, 62.64758112729384 
-151.7006326030291, 14.055313713742818, 20.97143928254631, -34.059863183612414, 56.04989463655717, 62.64341784643632 
-152.60164051661104, 13.720213390082849, 20.971797581869318, -34.48602469606949, 56.447466952246685, 62.63925506593245 
-153.5022108550149, 13.387285709914432, 20.972145694941396, -34.9099081780211, 56.8472607850254, 62.635094330832096 
-154.40240946592132, 13.056611490127704, 20.972483644907452, -35.3314687717411, 57.24924276686921, 62.63093720159555 
-155.3023006916046, 12.728271053841661, 20.97281146496236, -35.7506588095171, 57.65337951659174, 62.626785253279564 
-156.20194734852, 12.402344231825914, 20.973129198174863, -36.167427593298314, 58.05963763755371, 62.622640074699426 
-157.1014107073793, 12.078910362942342, 20.973436897300072, -36.58172115582487, 58.46798371488436, 62.61850326756791 
-158.00075047369504, 11.758048293592816, 20.97373462458096, -36.99348200134242, 58.8783843121806, 62.614376445611725 
-158.9000247687823, 11.43983637616066, 20.974022451538975, -37.4026488237817, 59.29080596764603, 62.61026123366597 
-159.79929011121, 11.12435246643522, 20.97430045875423, -37.8091562000277, 59.70521518962629, 62.606159266747525 
-160.69860139869965, 10.8116739200105, 20.97456873563551, -38.212934255613035, 60.12157845149197, 62.60207218910807 
-161.59801189047428, 10.501877587650345, 20.974827380180315, -38.61390829984089, 60.53986218581396, 62.59800165326752 
-162.4975731900653, 10.195039809614592, 20.975076498725425, -39.01199842696615, 60.96003277776821, 62.59394931902863 
-163.39733522858995, 9.891236408942037, 20.97531620568823, -39.40711907963276, 61.38205655769934, 62.58991685247378 
-164.29734624851568, 9.590542683688023, 20.975546623299213, -39.799178570272865, 61.805899792761934, 62.58590592494446 
-165.1976527879337, 9.293033398116014, 20.975767881325915, -40.18807855560785, 62.23152867754811, 62.58191821200479 
-166.0982996653665, 8.998782772844706, 20.975980116788747, -40.57371345873939, 62.65890932359675, 62.57795539238962 
-166.99932996514008, 8.707864473953492, 20.97618347366914, -40.95596983257009, 63.088007747665, 62.57401914693833 
-167.90078502335348, 8.420351601051745, 20.97637810261024, -41.334725657425345, 63.518789858626256, 62.57011115751532 
-168.8027044144841, 8.136316674318714, 20.976564160610717, -41.70984956474503, 63.95122144283812, 62.56623310591797 
-169.70512593866917, 7.855831620523138, 20.976741810711996, -42.08119997754834, 64.3852681478021, 62.562386672773414 
-170.6080856097076, 7.578967758033704, 20.97691122167936, -42.4486241570196, 64.82089546390921, 62.55857353642478 
-171.51161764383008, 7.30579578083348, 20.97707256767734, -42.81195714298104, 65.25806870403511, 62.55479537180815 
-172.41575444928745, 7.036385741553766, 20.97722602793986, -43.17102057416867, 65.69675298071148, 62.55105384932148 
-173.32052661681064, 6.770807033544624, 20.977371786435484, -43.52562137205777, 66.13691318055831, 62.54735063368605 
-174.22596291099677, 6.5091283720021345, 20.97751003152835, -43.875550269432175, 66.57851393561036, 62.54368738280215 
-175.13209026268038, 6.251417774174069, 20.977640955635046, -44.220580161881614, 67.02151959111292, 62.54006574659956 
-176.03893376234794, 5.9977425386684375, 20.97776475487812, -44.56046425684924, 67.46589416929017, 62.53648736588454 
-176.94651665465742, 5.7481692238914635, 20.97788162873643, -44.89493399062495, 67.91160132850683, 62.53295387118365 
-177.85486033412522, 5.502763625643842, 20.977991779693014, -45.223696678646675, 68.3586043171438, 62.52946688158675 
-178.76398434204364, 5.261590753906636, 20.97809541288079, -45.546432858459305, 68.80686592138872, 62.52602800358898 
-179.67390636469344, 5.024714808850481, 20.978192735726648, -45.86279327747273, 69.2563484059995, 62.52263882993394 
179.41535776708486, 4.792199156104063, 20.978283957594332, -46.172395468987894, 69.7070134469265, 62.51930093845889 
178.50379407689502, 4.564106301320239, 20.978369289426656, -46.47481984948693, 70.15882205446952, 62.51601589094276 
177.59139044030212, 4.340497864080666, 20.97844894338747, -46.769605257485644, 70.61173448539292, 62.51278523195907 
176.67813658079703, 4.121434551181775, 20.97852313250384, -47.05624383879105, 71.06571014211211, 62.50961048773411 
175.7640240641476, 3.9069761293476577, 20.978592070309002, -47.33417516411238, 71.52070745668658, 62.506493165011854 
174.8490462910739, 3.697181397417329, 20.978655970486404, -47.60277944177788, 71.9766837568877, 62.50343474992707 
173.93319848818936, 3.492108158056222, 20.9787150465155, -47.86136965969811, 72.43359511103328, 62.50043670688736 
173.0164776971494, 3.29181318904382, 20.978769511319562, -48.10918245525994, 72.89139614756499, 62.49750047746578 
172.09888276195375, 3.0963522141914153, 20.978819576916145, -48.34536746767711, 73.35003984444917, 62.49462747930481 
171.1804143143499, 2.9057798739460043, 20.97886545407051, -48.568974872040734, 73.80947728235903, 62.49181910503327 
170.26107475728918, 2.7201496957380544, 20.97890735195267, -48.77894072473123, 74.26965735417663, 62.489076721196945 
169.34086824639044, 2.5395140641327973, 20.97894547779825, -48.97406966177668, 74.73052642155014, 62.48640166720433 
168.41980066937026, 2.363924190846311, 20.978980036573773, -49.15301437959612, 75.19202790693726, 62.48379525428878 
167.49787962340264, 2.1934300846890413, 20.97901123064684, -49.31425118389187, 75.65410180659885, 62.481258764487876 
166.5751143903765, 2.0280805215009683, 20.979039259461555, -49.456050707197655, 76.116684106163, 62.47879344964128 
165.65151591002333, 1.8679230141436296, 20.97906431921955, -49.57644265510606, 76.57970607536271, 62.476400530408355 
164.72709675089334, 1.7130037826153657, 20.9790866025673, -49.67317312682149, 77.04309341194953, 62.47408119530639 
163.80187107916385, 1.5633677243570936, 20.97910629828981, -49.7436526416872, 77.50676519603633, 62.47183659977071 
162.8758546252697, 1.419058384816315, 20.979123591011312, -49.784892453960765, 77.97063260441959, 62.469667865237575 
161.9490646483509, 1.280117928337823, 20.97913866090328, -49.79342600326832, 78.43459731864276, 62.4675760782511 
161.02151989851967, 1.1465871094496836, 20.979151683400154, -49.76521135707831, 78.89854953905788, 62.46556228959494 
160.09324057695576, 1.0185052446131644, 20.97916282892317, -49.69550915336816, 79.36236548755673, 62.463627513450106 
159.1642482938449, 0.8959101845051176, 20.979172262612543, -49.57872870155423, 79.82590424051517, 62.4617727265793 
158.2345660241828, 0.7788382869008867, 20.979180144068657, -49.40823233795773, 80.28900367568127, 62.45999886753958 
157.30421806147302, 0.6673243902252579, 20.97918662710219, -49.17608455259781, 80.75147523452321, 62.45830683592325 
156.37322996935563, 0.5614017878380224, 20.97919185949382, -48.872727357819514, 81.21309708320454, 62.45669749162862 
155.44162853120918, 0.4611022031197144, 20.979195982763777, -48.48655619419042, 81.67360508281286, 62.45517165416122 
154.50944169777608, 0.3664557654216267, 20.979199131951344, -48.0033603886962, 82.1326807245897, 62.45373010196614 
153.5766985328686, 0.2774909869427077, 20.97920143540492, -47.40557736118382, 82.58993480431222, 62.45237357179254 
152.6434291572195, 0.1942347405941383, 20.979203014582627, -46.6712883458944, 83.04488503091706, 62.4511027580909 
151.70966469054795, 0.11671223891024009, 20.979203983863894, -45.77285246911669, 83.4969248742569, 62.449918312443685 
150.77543719191846, 0.04494701406212728, 20.979204450372237, -44.67503190010061, 83.94527957219636, 62.44882084303038 
149.84077959847605, -0.021039100971934104, 20.97920451380946, -43.33239969264105, 84.38894304387695, 62.44781091412712 
148.90572566264882, -0.08122599002841573, 20.979204266301437, -41.685743123697364, 84.82658603206663, 62.4468890456417 
147.97030988791263, -0.1355952701243242, 20.979203792255788, -39.65709121601443, 85.2564204398459, 62.44605571268478 
147.03456746322055, -0.18413030652195098, 20.979203168231596, -37.142960694673754, 85.67599667635035, 62.445311345177146 
146.09853419620336, -0.22681622645076824, 20.97920246282125, -34.00560777557528, 86.0818993536617, 62.44465632749426 
145.1622464452533, -0.26363993144833353, 20.979201736544727, -30.062997358799677, 86.46929382986735, 62.444090998147864 
144.2257410506068, -0.2945901082856041, 20.979201041756326, -25.08112476282057, 86.8312734754461, 62.44361564950545 
143.28905526454733, -0.3196572384460192, 20.97920042256404, -18.77988101303817, 87.15800626923392, 62.44323052754771 
142.3522266808512, -0.33883360613160307, 20.979199914761665, -10.878893225289564, 87.43588887154407, 62.442935831664364 
141.41529316360453, -0.35211330477343034, 20.979199545773675, -1.226010485102323, 87.64746818215612, 62.44273171448844 
140.4782927755197, -0.3594922420279912, 20.979199334613078, 9.978245660520127, 87.77370223623413, 62.44261828176967 
139.54126370588418, -0.3609681432452802, 20.97919929185213, 22.001295894263517, 87.79981958544303, 62.44259559228637 
138.6042441982739, -0.3565405533987396, 20.979199419606104, 33.73909604348185, 87.72236735764116, 62.442663657796636 
137.6672724781658, -0.3462108374714872, 20.979199711530004, 44.22432549104648, 87.55117025123985, 62.44282244302857 
136.73038668058408, -0.32998217929780915, 20.97920015282837, 52.99828268093683, 87.30406472297548, 62.44307186570965 
135.7936247779145, -0.3078595788632329, 20.979200720277987, 60.06808502400748, 86.9997998892163, 62.44341179663507 
134.85702450802052, -0.27984984807077234, 20.979201382263625, 65.67279945974043, 86.65399546626774, 62.44384205977515 
133.9206233027936, -0.24596160498545677, 20.979202098826725, 70.10248081422007, 86.27828404872889, 62.44436243242154 
132.9844582172686, -0.20620526657347416, 20.97920282172684, 73.61656377772213, 85.88091953869478, 62.44497264537225 
132.0485658594324, -0.1605930399565195, 20.979203494515964, 76.42255620526355, 85.46767720124089, 62.44567238315501 
131.11298232085133, -0.10913891220596676, 20.979204052625473, 78.67909825961483, 85.04261393740076, 62.44646128428871 
130.17774310823975, -0.05185863870570932, 20.97920442346564, 80.50559329080546, 84.60861612323403, 62.447338941583126 
129.24288307608782, 0.011230269883800641, 20.979204526537583, 81.99179921078188, 84.16777188564966, 62.448304902475755 
128.30843636046288, 0.08010856202388604, 20.979204273557503, 83.2055840384432, 83.72161941861962, 62.44935866940603 
127.37443631409326, 0.15475526101833717, 20.979203568593036, 84.19874162240711, 83.27131260321636, 62.450499700226054 
126.44091544283991, 0.23514768201307024, 20.97920230821151, 85.0112253046444, 82.81773245506616, 62.45172740864776 
125.50790534365322, 0.32126145022815455, 20.979200381640005, 85.67420097792301, 82.36156310699798, 62.453041164725406 
124.57543664410957, 0.41307052037233655, 20.979197670936884, 86.21224999092695, 81.90334438936932, 62.454440295373466 
123.64353894361344, 0.5105471971876602, 20.979194051174655, 86.64496773955868, 81.44350877975319, 62.45592408491885 
122.71224075634642, 0.613662157068958, 20.97918939063388, 86.98813347163072, 80.98240776568817, 62.45749177568707 
121.78156945603722, 0.7223844707005667, 20.979183551007893, 87.25457462337391, 80.52033093094258, 62.459142568621324 
120.85155122261968, 0.8366816266505721, 20.979176387618054, 87.45481198171478, 80.05751996698469, 62.46087562393428 
119.92221099083986, 0.9565195558608753, 20.97916774963924, 87.5975462049678, 79.59417909451031, 62.46269006179129 
118.99357240086542, 1.081862656969649, 20.979157480335314, 87.69002841691719, 79.13048291059052, 62.46458496302473 
118.06565775094386, 1.2126738224013456, 20.979145417304135, 87.73834525397855, 78.666582365661, 62.46655936987801 
117.13848795214975, 1.3489144651581564, 20.979131392732082, 87.74764016416339, 78.20260936521723, 62.46861228677904 
116.21208248525232, 1.4905445462458262, 20.979115233657296, 87.72228674547216, 77.73868034841136, 62.47074268114191 
115.2864593597304, 1.637522602666076, 20.97909676224178, 87.66602566594457, 77.27489909726032, 62.47294948419572 
114.36163507495182, 1.789805775907188, 20.97907579605167, 87.58207368282147, 76.81135896133362, 62.475231591840256 
113.43762458353024, 1.9473498408642815, 20.97905214834537, 87.47321110367282, 76.3481446340975, 62.477587865526516 
112.51444125686437, 2.1101092351204946, 20.97902562836929, 87.34185245478086, 75.88533358225533, 62.48001713316213 
111.59209685285826, 2.2780370885206085, 20.978996041660672, 87.19010396740188, 75.42299720423445, 62.48251819003986 
110.6706014858151, 2.451085252969024, 20.978963190357167, 87.0198106400233, 74.96120177556344, 62.48508979978867 
109.74996359849175, 2.629204332384436, 20.978926873512687, 86.8325950000006, 74.50000922530849, 62.48773069534589 
108.8301899362942, 2.8123437127444864, 20.97888688741925, 86.62988921151671, 74.03947777762816, 62.49043957994963 
107.91128552359005, 3.0004515921545067, 20.97884302593425, 86.41296181637931, 73.57966248491516, 62.49321512815025 
106.99325364210759, 3.19347501087566, 20.97879508081274, 86.1829401194589, 73.12061567324416, 62.49605598683978 
106.07609581138773, 3.391359881248993, 20.978742842044447, 85.9408290196803, 72.66238731645758, 62.49896077629825 
105.15981177124922, 3.594051017453482, 20.97868609819485, 85.6875269244672, 72.20502535184723, 62.501928091255415 
104.24439946622446, 3.801492165037489, 20.978624636750002, 85.42383925870496, 71.74857594777724, 62.504956501967285 
103.3298550319184, 4.013626030165125, 20.978558244464708, 85.15048997997512, 71.29308373155615, 62.508044555305794 
102.41617278324084, 4.230394308520375, 20.978486707713326, 84.8681314335875, 70.83859198426894, 62.51119077586065 
101.50334520445836, 4.451737713814154, 20.978409812843132, 84.57735281895619, 70.38514280801681, 62.51439366705213 
100.59136294100978, 4.677596005841327, 20.9783273465294, 84.27868748949108, 69.9327772700112, 62.5176517122537 
99.68021479302689, 4.907908018036701, 20.978239096131976, 83.97261926863153, 69.48153552716904, 62.52096337592317 
98.7698877105, 5.142611684481394, 20.978144850052775, 83.65958793281843, 69.0314569342129, 62.52432710474119 
97.86036679002677, 5.381644066313072, 20.97804439809378, 83.33999398645334, 68.58258013776249, 62.52774132875594 
96.95163527308041, 5.624941377495827, 20.977937531814963, 83.01420283297026, 68.13494315848358, 62.531204462532784 
96.04367454573446, 5.8724390099077715, 20.977824044891864, 82.68254842906626, 67.68858346301843, 62.53471490630786 
95.13646413977865, 6.12407155770693, 20.977703733472097, 82.34533649513517, 67.24353802714131, 62.53827104714397 
94.2299817351621, 6.379772840937951, 20.977576396530548, 82.00284734342264, 66.79984339135385, 62.54187126008823 
93.324203163699, 6.639475928345175, 20.97744183622265, 81.65533837589506, 66.35753570994362, 62.54551390932952 
92.41910241397329, 6.903113159359206, 20.977299858235305, 81.30304629591204, 65.91665079437368, 62.549197349355545 
91.51465163737934, 7.170616165227163, 20.977150272135056, 80.94618907121165, 65.47722415173929, 62.55291992610733 
90.61082115523656, 7.441915889258752, 20.97699289171289, 80.58496768021857, 65.03929101891897, 62.55667997813072 
89.70757946691823, 7.71694260616266, 20.97682753532544, 80.21956766907543, 64.60288639295604, 62.56047583772333 
88.80489325893527, 7.995625940450307, 20.976654026231937, 79.85016054291825, 64.16804505813, 62.56430583207632 
87.90272741491904, 8.27789488388593, 20.976472192926547, 79.47690501164438, 63.734801610112314, 62.568168284409154 
87.00104502644862, 8.56367781196455, 20.9762818694657, 79.09994810765018, 63.303190477546416, 62.572061515096834 
86.0998074046709, 8.852902499401266, 20.976082895789855, 78.71942619066381, 62.87324594134576, 62.57598384278857 
85.19897409266444, 9.14549613461777, 20.975875118039404, 78.33546585279515, 62.445002151963564, 62.57993358551624 
84.29850287850184, 9.441385333213793, 20.97565838886422, 77.94818473521569, 62.018493144855086, 62.58390906179221 
83.39834980896687, 9.740496150413582, 20.97543256772641, 77.55769226641655, 61.593752854323796, 62.587908591695225 
82.49846920388816, 10.042754092479262, 20.975197521195987, 77.16409033073695, 61.17081512591848, 62.59193049794335 
81.5988136710533, 10.348084127085018, 20.974953123238933, 76.76747387477462, 60.74971372752696, 62.59597310695333 
80.6993341216718, 10.656410692648128, 20.974699255497313, 76.36793145835628, 60.33048235929371, 62.6000347498846 
79.79997978635899, 10.967657706614315, 20.97443580756116, 75.96554575594178, 59.913154662473275, 62.60411376366807 
78.90069823161754, 11.281748572697408, 20.974162677231547, 75.56039401363523, 59.497764227317035, 62.60820849201816 
78.00143537679725, 11.598606187074285, 20.973879770774765, 75.15254846637153, 59.084344600079554, 62.612317286426965 
77.10213551151823, 11.9181529435387, 20.973587003166973, 74.74207671931725, 58.67292928922025, 62.61643850714062 
76.20274131354788, 12.24031073761842, 20.97328429832926, 74.32904209706585, 58.26355177086685, 62.62057052411605 
75.30319386712577, 12.56500096966273, 20.9729715893526, 73.9135039638035, 57.856245493599836, 62.62471171795783 
74.40343268173666, 12.892144546908108, 20.972648818712457, 73.49551801727077, 57.45104388260945, 62.62886048083434 
73.50339571133617, 13.221661884532192, 20.972315938472754, 73.07513655903514, 57.04798034327161, 62.63301521737255 
72.6030193740388, 13.553472905707494, 20.971972910478954, 72.65240874331879, 56.64708826418304, 62.63717434553015 
71.70223857228429, 13.887497040667814, 20.97161970653987, 72.22738080638587, 56.24840101969199, 62.64133629744545 
70.80098671350217, 14.223653224802256, 20.97125630859805, 71.80009627828353, 55.85195197195611, 62.64549952026309 
69.8991957313016, 14.56185989579282, 20.970882708888507, 71.37059617854345, 55.4577744725562, 62.64966247693609 
68.99679610721789, 14.902034989813705, 20.970498910085375, 70.93891919728665, 55.06590186369075, 62.653823647002895 
68.09371689305415, 15.24409593681153, 20.970104925436612, 70.5051018630273, 54.67636747897365, 62.657981527339146 
67.18988573386099, 15.587959654887795, 20.969700778886164, 70.0691786983418, 54.28920464385505, 62.66213463288368 
