# MEX_intpoint_lon [deg], MEX_intpoint_lat [deg], MEX_intpoint_angle [deg], TGO_intpoint_lon [deg], TGO_intpoint_lat [deg], TGO_intpoint_angle [deg] 
-139.3797258933644, 19.605930993506174, 21.817226946826953, -27.393999313943894, 40.385376088575036, 62.9129949730847 
-140.26896255264174, 19.201209177194983, 21.817833450204343, -27.655867297591982, 40.797546044099285, 62.90830708664098 
-141.15657457824628, 18.797635505644266, 21.818427658297963, -27.912452866018693, 41.21221640902661, 62.90358186649492 
-142.04266699808525, 18.39530420075559, 21.81900940493124, -28.163650197294253, 41.629328906567636, 62.89882079892546 
-142.92734316164393, 17.994308823045532, 21.819578538824572, -28.40934934920546, 42.04882468858599, 62.89402541630909 
-143.81070472069277, 17.594742296238724, 21.820134923610247, -28.649436034530126, 42.47064430334214, 62.88919729658643 
-144.69285161098693, 17.196696930791557, 21.82067843782936, -28.88379138505314, 42.89472766079933, 62.884338062673606 
-145.5738820348098, 16.800264446313193, 21.8212089749108, -29.112291703667168, 43.321013995356076, 62.8794493818195 
-146.45389244422515, 16.405535992851785, 21.821726443132448, -29.334808203863332, 43.74944182586006, 62.87453296490822 
-147.33297752491126, 16.012602171016304, 21.82223076556446, -29.551206735875965, 44.17994891274594, 62.869590565707796 
-148.21123018046356, 15.621553050905428, 21.822721879995065, -29.76134749870473, 44.6124722121288, 62.8646239800652 
-149.08874151706024, 15.232478189817328, 21.82319973883868, -29.965084737192992, 45.046947826670646, 62.85963504504813 
-149.96560082839716, 14.845466648714902, 21.823664309026785, -30.162266423297048, 45.483310953024215, 62.85462563803419 
-150.84189558080703, 14.4606070074228, 21.824115571881517, -30.352733920634396, 45.92149582564281, 62.84959767574791 
-151.71771139848727, 14.077987378534049, 21.824553522972337, -30.53632163135152, 46.3614356567283, 62.84455311324614 
-152.593132048771, 13.697695420004832, 21.82497817195589, -30.71285662430391, 46.803062572072385, 62.83949394285293 
-153.46823942738268, 13.319818346417792, 21.825389542399307, -30.882158243491805, 47.24630754252659, 62.83442219304389 
-154.34311354363066, 12.944442938894825, 21.825787671587275, -31.04403769564658, 47.69110031081659, 62.82933992728155 
-155.21783250549524, 12.571655553642081, 21.826172610313073, -31.198297615814077, 48.13736931339406, 62.82424924280206 
-156.09247250458034, 12.201542129110448, 21.826544422653903, -31.34473160973435, 48.58504159699611, 62.8191522693544 
-156.96710780090424, 11.834188191756523, 21.826903185730803, -31.48312377177166, 49.03404272955644, 62.81405116789306 
-157.84181070751268, 11.469678860389696, 21.827248989453533, -31.61324817710705, 49.48429670508559, 62.808948129224895 
-158.71665157490472, 11.108098849092782, 21.827581936250745, -31.73486834686775, 49.93572584210854, 62.80384537261174 
-159.5916987752702, 10.749532468704208, 21.82790214078579, -31.847736684836292, 50.38825067521627, 62.79874514432944 
-160.4670186865433, 10.394063626851699, 21.82820972965859, -31.95159388435847, 50.84178983925504, 62.79364971618468 
-161.3426756762849, 10.041775826528346, 21.828504841093935, -32.046168304055264, 51.296259945641175, 62.78856138399119 
-162.21873208541294, 9.692752163203364, 21.828787624616638, -32.13117531094397, 51.75157545025171, 62.78348246600565 
-163.095248211806, 9.347075320461661, 21.829058240714076, -32.20631658958842, 52.20764851230038, 62.778415301326035 
-163.97228229381318, 9.0048275641675, 21.82931686048633, -32.27127941593476, 52.664388843566556, 62.77336224825248 
-164.84989049370785, 8.666090735149556, 21.82956366528471, -32.32573589454914, 53.12170354729887, 62.76832568261307 
-165.7281268811312, 8.330946240406055, 21.829798846338825, -32.369342158065294, 53.57949694606882, 62.76330799605544 
-166.607043416575, 7.9994750428310395, 21.830022604372974, -32.401737527777414, 54.03767039779909, 62.75831159430625 
-167.48668993496162, 7.671757649464105, 21.830235149212136, -32.42254363448698, 54.49612209914051, 62.753338895399736 
-168.36711412938183, 7.347874098268724, 21.830436699378264, -32.43136349893885, 54.95474687531767, 62.74839232787733 
-169.2483615350594, 7.027903943445932, 21.830627481677208, -32.427780571473555, 55.413435955508184, 62.74347432895977 
-170.1304755136141, 6.711926239292628, 21.830807730777103, -32.41135773089165, 55.87207673276541, 62.73858734269362 
-171.01349723770204, 6.400019522616193, 21.830977688778436, -32.3816362429879, 56.33055250743808, 62.733733818074256 
-171.89746567611428, 6.092261793719614, 21.831137604776636, -32.338134679783415, 56.78874221298493, 62.72891620714636 
-172.78241757942178, 5.788730495974, 21.83128773441758, -32.28034780118563, 57.246520123029505, 62.724136963084895 
-173.6683874662578, 5.489502493997772, 21.831428339446735, -32.207745401659324, 57.7037555384505, 62.719398538257636 
-174.5554076103316, 5.194654050465429, 21.831559687252415, -32.1197711255268, 58.16031245325747, 62.71470338227166 
-175.4435080282731, 4.904260801570809, 21.831682050403757, -32.01584125576064, 58.61604919796629, 62.71005394000558 
-176.33271646841004, 4.618397731173644, 21.83179570618415, -31.8953434826255, 59.070818059161084, 62.70545264962987 
-177.22305840058132, 4.337139143660886, 21.83190093612057, -31.757635660305375, 59.52446487391811, 62.70090194061703 
-178.11455700709502, 4.060558635557682, 21.831998025509517, -31.602044561766608, 59.97682859777345, 62.69640423174367 
-179.00723317493913, 3.7887290659261836, 21.832087262940195, -31.427864644606668, 60.427740844946925, 62.69196192908731 
-179.90110548935596, 3.521722525593897, 21.832168939815404, -31.234356843579825, 60.877025399595894, 62.68757742401911 
179.2038097711077, 3.259610305256478, 21.832243349871078, -31.020747408940768, 61.32449769697235, 62.683253091195134 
178.30749863796188, 3.002462862503543, 21.83231078869474, -30.78622681377039, 61.76996427350405, 62.678991286549106 
177.40994945443424, 2.750349787819705, 21.83237155324378, -30.52994875812335, 62.21322218502653, 62.67479434528713 
176.51115287531712, 2.50333976961623, 21.832425941364, -30.251029303237665, 62.65405839267151, 62.67066457988851 
175.61110186488986, 2.2615005583527537, 21.832474251309193, -29.94854617525595, 63.092249116282396, 62.66660427811384 
174.7097916928057, 2.0248989298115445, 21.83251678126232, -29.621538284998948, 63.527559155699215, 62.66261570102255 
173.80721992783637, 1.7936006475907296, 21.832553828858913, -29.269005518379235, 63.95974118085145, 62.65870108100318 
172.9033864293674, 1.5676704248860065, 21.832585690713294, -28.88990886110009, 64.38853499234376, 62.65486261981728 
171.99829333654344, 1.347171885634087, 21.832612661948374, -28.483170931390084, 64.81366675514127, 62.65110248666052 
171.09194505496376, 1.1321675250940966, 21.832635035729417, -28.047677005676693, 65.23484820908745, 62.647422816242255 
170.18434824083562, 0.9227186699465766, 21.832653102802645, -27.582276634254967, 65.65177586135121, 62.64382570688658 
169.27551178249485, 0.7188854379927255, 21.832667151039015, -27.085785957043033, 66.06413016753294, 62.64031321865662 
168.36544677921205, 0.5207266975394059, 21.832677464984062, -26.55699084322457, 66.47157471009739, 62.636887371504706 
167.45416651720654, 0.3283000265581674, 21.832684325414117, -25.99465099262426, 66.87375538507874, 62.6335501434501 
166.54168644279832, 0.14166167170916769, 21.832688008899666, -25.397505150557812, 67.27029961064882, 62.630303468787424 
165.62802413263555, -0.03913349267690337, 21.83268878737637, -24.764277600951075, 67.66081557417978, 62.62714923632679 
164.71319926094301, -0.2140320055636871, 21.83268692772431, -24.093686113806324, 68.04489153788018, 62.62408928766893 
163.7972335637457, -0.38298186002365886, 21.832682691355988, -23.384451531390546, 68.42209522693514, 62.621125415516715 
162.88015080003063, -0.5459325438037099, 21.832676333813694, -22.635309181287482, 68.79197332831234, 62.6182593620254 
161.96197670981977, -0.7028350795419331, 21.832668104376676, -21.84502230178887, 69.15405113294472, 62.61549281719383 
161.04273896913654, -0.8536420645347893, 21.832658245678708, -21.012397653722072, 69.50783235876885, 62.61282741729827 
160.12246714185977, -0.9983077099532112, 21.83264699333654, -20.136303470088027, 69.85279919692685, 62.6102647433713 
159.20119262846836, -1.1367878794059927, 21.832634575589708, -19.215689857885806, 70.18841262810946, 62.60780631972717 
158.27894861169224, -1.2690401267488545, 21.832621212952173, -18.249611712143974, 70.5141130602269, 62.60545361253599 
157.35576999909557, -1.3950237330381285, 21.832607117876243, -17.237254127430372, 70.82932134195731, 62.60320802844852 
156.43169336263088, -1.514699742528726, 21.83259249442933, -16.17796019432469, 71.13344020876063, 62.60107091327269 
155.50675687521274, -1.6280309976175051, 21.832577537983767, -15.07126094568812, 71.42585621809437, 62.59904355070473 
154.58100024437283, -1.734982172634532, 21.832562434920273, -13.916907069625275, 71.70594222818596, 62.59712716111541 
153.65446464306964, -1.835519806387115, 21.832547362345384, -12.714901834442893, 71.97306046912573, 62.59532290039373 
152.7271926377364, -1.9296123333635642, 21.832532487823244, -11.465534480093574, 72.22656624556903, 62.593631858849285 
151.79922811366464, -2.017230113506804, 21.832517969122083, -10.169413128459672, 72.4658122963845, 62.59205506017468 
150.8706161978296, -2.0983454604709864, 21.832503953975742, -8.827496063286196, 72.69015381773545, 62.590593460469606 
149.9414031792767, -2.1729326682780092, 21.832490579860565, -7.441120045698707, 72.89895413220056, 62.58924794732765 
149.01163642719732, -2.24096803629471, 21.832477973787917, -6.012024182942424, 73.09159095789614, 62.58801933898726 
148.08136430683336, -2.3024298924561255, 21.832466252112695, -4.542367778877489, 73.26746319894441, 62.58690838354753 
147.15063609335965, -2.357298614664578, 21.832455520357968, -3.034740588263441, 73.42599814342825, 62.58591575825068 
146.21950188390144, -2.4055566502997547, 21.832445873056002, -1.4921639943277811, 73.56665891919876, 62.58504206883136 
145.28801250785415, -2.4471885337800585, 21.832437393606043, 0.08191815360913828, 73.68895202414768, 62.584287848934046 
144.356219435679, -2.482180902121241, 21.83243015414875, 1.683659961999939, 73.79243471883224, 62.583653559599355 
143.42417468635603, -2.51052250844434, 21.832424215457735, 3.308845629923514, 73.87672204880984, 62.5831395888198 
142.49193073368198, -2.5322042333909103, 21.83241962684819, 4.952933192875563, 73.94149325467163, 62.582746251165624 
141.559540411606, -2.5472190944100475, 21.83241642610272, 6.6111091384037355, 73.98649733191039, 62.58247378748134 
140.62705681880053, -2.555562252888238, 21.83241463941463, 8.278352516910827, 74.01155752176494, 62.58232236465321 
139.69453322266833, -2.557231019099587, 21.83241428134849, 9.949506571966703, 74.0165745480494, 62.582292075448045 
138.76202296298953, -2.552224854961051, 21.832415354818327, 11.619355416523202, 74.00152846219962, 62.582382938423756 
137.8295793554143, -2.5405453745838904, 21.832417851083203, 13.282702936243064, 73.96647901637463, 62.5825948979112 
136.8972555950066, -2.5221963426196927, 21.83242174976033, 14.934450946078245, 73.91156454826067, 62.58292782406826 
135.96510466004585, -2.497183670406121, 21.832427018855764, 16.569673678413295, 73.83699942631327, 62.5833815130048 
135.03317921629048, -2.465515409924506, 21.83243361481241, 18.183685934728835, 73.74307016546318, 62.58395568698004 
134.10153152190642, -2.427201745588211, 21.832441482575522, 19.77210266003771, 73.63013037618127, 62.58464999467018 
133.1702133332593, -2.382254983887446, 21.832450555675475, 21.330888254887306, 73.49859475062732, 62.58546401150757 
132.23927581176622, -2.330689540922869, 21.832460756327688, 22.856394567408987, 73.34893231613535, 62.586397240089696 
131.30876943199695, -2.272521927866626, 21.832471995549653, 24.345387148980883, 73.18165919777464, 62.58744911065848 
130.3787438912095, -2.2077707343960165, 21.832484173294873, 25.79505995775599, 72.99733112887523, 62.58861898164842 
129.4492480204972, -2.136456610150653, 21.832497178603486, 27.203039211681375, 72.79653593311423, 62.58990614030332 
128.52032969771875, -2.0586022442700838, 21.832510889769406, 28.56737749814874, 72.57988617673958, 62.59130980336045 
127.59203576237205, -1.9742323430741653, 21.832525174523848, 29.886539527791705, 72.34801215787589, 62.59282911780177 
126.66441193256667, -1.8833736059538069, 21.832539890234784, 31.1593810758247, 72.10155536473687, 62.59446316167047 
125.73750272423814, -1.786054699544437, 21.83255488412233, 32.3851226973865, 71.8411624987906, 62.59621094495226 
124.81135137273851, -1.682306230259325, 21.832569993489557, 33.563319752675106, 71.56748012479912, 62.598071410520205 
123.88599975692648, -1.5721607152638306, 21.8325850459685, 34.69383015602885, 71.2811499788889, 62.6000434351415 
122.96148832587066, -1.4556525519756531, 21.832599859781098, 35.776781093828205, 70.9828049394828, 62.60212583054535 
122.037856028267, -1.332817986179492, 21.83261424401461, 36.81253576061849, 70.67306564455257, 62.60431734455015 
121.11514024466129, -1.2036950788476524, 21.832627998911246, 37.80166095926303, 70.35253772228789, 62.606616662248506 
120.19337672255516, -1.0683236717606464, 21.83264091617155, 38.74489621323275, 70.02180959063078, 62.609022407249086 
119.27259951446315, -0.9267453520242653, 21.83265277927116, 39.64312485717843, 69.68145077367095, 62.61153314297275 
118.35284091897579, -0.7790034155812969, 21.832663363790548, 40.49734741180562, 69.33201067899898, 62.61414737400219 
117.43413142487262, -0.6251428298175311, 21.832672437757275, 41.30865741371791, 68.97401777908001, 62.616863547482694 
116.51649965831764, -0.4652101953628763, 21.832679762000332, 42.07821976083147, 68.60797914088029, 62.61968005457251 
115.5999723331572, -0.29925370718890076, 21.83268509051607, 42.807251547986944, 68.23438025074486, 62.62259523194111 
114.6845742043306, -0.1273231151044844, 21.832688170845255, 43.49700530319636, 67.85368508536457, 62.62560736331299 
113.77032802439105, 0.05053031624880152, 21.83268874446075, 44.14875448967471, 67.466336384153, 62.62871468105533 
112.85725450312611, 0.23425384780043648, 21.832686547165363, 44.76378110932499, 67.07275608313545, 62.63191536780768 
111.94537227025435, 0.4237933067533672, 21.83268130949915, 45.34336522664472, 66.6733458752739, 62.6352075581512 
111.03469784116633, 0.6190931274860009, 21.832672757155912, 45.888776225307744, 66.2684878668262, 62.63858934031572 
110.12524558566916, 0.8200963925556247, 21.832660611408127, 46.40126561048598, 65.85854530373811, 62.6420587579222 
109.21702769968331, 1.0267448737073135, 21.83264458953983, 46.882061176223885, 65.44386334611251, 62.645613811759034 
108.31005417983411, 1.2389790727939263, 21.83262440528689, 47.332362367138344, 65.02476987245232, 62.64925246158888 
107.40433280087073, 1.456738262515329, 21.83259976928404, 47.75333667601963, 64.601576298616, 62.652972627985235 
106.4998690958398, 1.679960526887082, 21.832570389518178, 48.146116932482215, 64.1745783992655, 62.65677219419538 
105.59666633893306, 1.90858280135192, 21.832535971787237, 48.51179935185836, 63.744057122044644, 62.660649008028116 
104.69472553092332, 2.1425409124495878, 21.83249622016404, 48.851442227454946, 63.31027938682905, 62.664600883763455 
103.79404538709679, 2.3817696169642395, 21.832450837464666, 49.166065162699525, 62.873498864170344, 62.66862560408297 
102.89462232758598, 2.626202640471198, 21.832399525720437, 49.45664875231504, 62.43395672855181, 62.67272092201719 
101.99645047000281, 2.875772715208373, 21.832341986653272, 49.72413463332601, 61.99188238331289, 62.67688456290906 
101.09952162426738, 3.1304116172010548, 21.832277922153366, 49.96942583733023, 61.547494155120454, 62.6811142263902 
100.2038252895265, 3.390050202571953, 21.83220703475903, 50.19338738504887, 61.10099995669545, 62.68540758836837 
99.30934865305217, 3.654618442972165, 21.832129028137572, 50.39684707271378, 60.652597917171526, 62.68976230302332 
98.41607659100953, 3.924045460071941, 21.832043607567066, 50.580596407412195, 60.20247697999362, 62.6941760048094 
97.52399167098181, 4.198259559054091, 21.83195048041798, 50.74539165514966, 59.75081746868026, 62.698646310461854 
96.63307415614038, 4.47718826105585, 21.83184935663433, 50.89195497118683, 59.29779162109356, 62.703170821005365 
95.74330201094614, 4.760758334509263, 21.83173994921351, 51.02097558723467, 58.84356409310064, 62.707747123762104 
94.85465090827103, 5.048895825332953, 21.831621974684353, 51.13311103443151, 58.38829243268697, 62.71237279435742 
93.96709423782737, 5.341526085932251, 21.831495153582594, 51.22898838475364, 57.932127525702455, 62.71704539872054 
93.0806031157958, 5.638573802967577, 21.83135921092337, 51.30920549669804, 57.47521401450232, 62.72176249507877 
92.19514639554313, 5.939963023854667, 21.831213876669924, 51.37433225378861, 57.0176906907884, 62.72652163594253 
91.31069067932442, 6.245617181963434, 21.83105888619793, 51.42491178675743, 56.559690863975305, 62.731320370079246 
90.42720033086631, 6.555459120485291, 21.830893980754958, 51.46146167219332, 56.10134270640207, 62.73615624447431 
89.54463748873098, 6.869411114942204, 21.8307189079144, 51.484475102080964, 55.64276957669037, 62.74102680627681 
88.66296208036434, 7.1873948943133765, 21.830533422023166, 51.49442202001843, 55.184090322518536, 62.74592960472807 
87.78213183673509, 7.509331660758812, 21.830337284642706, 51.49175022103685, 54.7254195640391, 62.75086219307098 
86.90210230747601, 7.835142107921286, 21.830130264982813, 51.476886412886266, 54.26686795912066, 62.755822130438716 
86.02282687644227, 8.164746437791578, 21.82991214032738, 51.45023723742642, 53.80854245154233, 62.76080698372009 
85.14425677760713, 8.498064376123672, 21.8296826964519, 51.41219025139451, 53.35054650321556, 62.76581432940042 
84.26634111121932, 8.835015186389878, 21.829441728031863, 51.363114866335394, 52.89298031145124, 62.77084175537599 
83.38902686015234, 9.175517682267497, 21.82918903904169, 51.30336324789361, 52.435941012235084, 62.775886862740116 
82.51225890638061, 9.519490238651212, 21.82892444314364, 51.23327117499492, 51.97952287041844, 62.780947267539375 
81.63598004752278, 9.86685080118773, 21.82864776406609, 51.15315885970262, 51.52381745767717, 62.78602060249815 
80.76013101339933, 10.217516894330535, 21.82835883597085, 51.063331728733004, 51.06891381903945, 62.79110451871033 
79.8846504825557, 10.571405627915361, 21.828057503808868, 50.96408116776304, 50.6148986287318, 62.79619668729598 
79.0094750987102, 10.92843370225807, 21.827743623663913, 50.8556852297726, 50.161856336044764, 62.801294801021974 
78.1345394870905, 11.288517411778859, 21.82741706308385, 50.73840930873794, 49.709869301873226, 62.806396575885124 
77.25977627063033, 11.65157264715792, 21.82707770139892, 50.61250678004146, 49.25901792654253, 62.81149975265611 
76.38511608600314, 12.017514896029622, 21.826725430026727, 50.47821960898686, 48.80938076949009, 62.816602098383456 
75.51048759947791, 12.386259242223302, 21.82636015276341, 50.33577892881708, 48.361034661333164, 62.82170140785526 
74.63581752258777, 12.75772036356046, 21.82598178606076, 50.18540558962356, 47.91405480881706, 62.826795505018964 
73.76103062760957, 13.131812528219461, 21.825590259288685, 50.02731067951744, 47.468514893102636, 62.83188224435657 
72.88604976286064, 13.508449589679687, 21.825185514982916, 49.86169601940486, 47.02448716182104, 62.83695951221492 
72.0107958678248, 13.887544980259095, 21.824767509077354, 49.68875463267357, 46.58204251529234, 62.84202522809007 
71.135187988129, 14.269011703259405, 21.824336211120958, 49.5086711910585, 46.141250587277035, 62.84707734586426 
70.25914329039853, 14.652762323735166, 21.823891604478725, 49.3216224379096, 45.70217982060317, 62.85211385499514 
69.38257707702725, 15.038708957903326, 21.823433686516548, 49.127777590039734, 45.26489753798737, 62.857132781656 
