# MEX_intpoint_lon [deg], MEX_intpoint_lat [deg], MEX_intpoint_angle [deg], TGO_intpoint_lon [deg], TGO_intpoint_lat [deg], TGO_intpoint_angle [deg] 
-138.15870649095476, 19.305288136687405, 21.011120146338655, -27.52126019124774, 49.86559739140352, 62.71517793274237 
-139.0737223921296, 18.944986220419565, 21.01163217835286, -27.964103614870144, 50.22995348140079, 62.71109776255949 
-139.98714403422866, 18.58559501717252, 21.012134808168888, -28.404850440686864, 50.59704308344407, 62.70699755829382 
-140.8990580387829, 18.22720388073523, 21.01262789399032, -28.84347200047567, 50.966832130945924, 62.7028785984613 
-141.80954988713992, 17.869901542870625, 21.013111305407964, -29.279938363144264, 51.33928652313582, 62.69874218672097 
-142.71870388711915, 17.51377612725042, 21.01358492341558, -29.7142182368232, 51.71437212681612, 62.6945896514359 
-143.6266031411366, 17.158915162796827, 21.014048640411808, -30.146278864486383, 52.0920547777753, 62.6904223452033 
-144.5333295156841, 16.805405596390237, 21.0145023601884, -30.576085912562206, 52.472300281845655, 62.686241644354084 
-145.43896361205668, 16.453333804904286, 21.014945997904757, -31.0036033519468, 52.85507441559319, 62.6820489484223 
-146.34358473822755, 16.102785606531835, 21.01537948004887, -31.428793330771995, 53.240342926624166, 62.67784567958441 
-147.2472708817772, 15.753846271367397, 21.01580274438477, -31.851616038217095, 53.62807153349253, 62.67363328206881 
-148.15009868379107, 15.40660053121373, 21.01621573988656, -32.27202955858054, 54.01822592518985, 62.669413221536004 
-149.05214341364524, 15.061132588582053, 21.016618426659115, -32.68998971474916, 54.41077176019784, 62.665186984429695 
-149.95347894460835, 14.717526124857196, 21.017010775845694, -33.105449900112646, 54.80567466508102, 62.66095607729895 
-150.8541777301922, 14.375864307601, 21.017392769522502, -33.518360897872206, 55.202900232594686, 62.65672202609261 
-151.75431078119237, 14.03622979696853, 21.017764400580404, -33.928670686581206, 55.602414019280275, 62.65248637542535 
-152.65394764336455, 13.698704751213985, 21.018125672594053, -34.3363242306315, 56.00418154251728, 62.64825068781684 
-153.5531563756898, 13.363370831264225, 21.01847659967847, -34.74126325425993, 56.408168276997046, 62.6440165429038 
-154.45200352918715, 13.03030920433994, 21.018817206333427, -35.143425997493345, 56.814339650579655, 62.6397855366262 
-155.3505541262389, 12.699600546605637, 21.01914752727581, -35.54274695227513, 57.22266103949086, 62.635559280387426 
-156.24887164039913, 12.37132504483173, 21.019467607260196, -35.93915657681805, 57.63309776281009, 62.631339400189816 
-157.14701797666194, 12.045562397052954, 21.019777500887866, -36.33258098600608, 58.04561507619567, 62.627127535745565 
-158.0450534521717, 11.722391812209649, 21.020077272404652, -36.72294161541575, 58.4601781647858, 62.62292533956402 
-158.94303677736292, 11.40189200875926, 21.020366995487716, -37.11015485624304, 58.87675213520688, 62.61873447601635 
-159.8410250375227, 11.084141212247665, 21.02064675302171, -37.494131658099505, 59.295302006612026, 62.61455662037749 
-160.73907367477452, 10.769217151831254, 21.02091663686455, -37.874777096274556, 59.71579270066288, 62.61039345784718 
-161.6372364704861, 10.457197055742167, 21.021176747603153, -38.25198989964576, 60.13818903035664, 62.60624668255005 
-162.5355655281105, 10.148157645691247, 21.021427194299438, -38.625661934943416, 60.562455687587956, 62.60211799651626 
-163.43411125647313, 9.842175130204424, 21.021668094227003, -38.9956776425358, 60.988557229320335, 62.59800910864298 
-164.3329223535228, 9.539325196890523, 21.021899572598723, -39.361913418281695, 61.41645806222574, 62.59392173363806 
-165.2320457905697, 9.239683003639701, 21.02212176228577, -39.72423693528888, 61.84612242563163, 62.58985759094665 
-166.13152679703595, 8.943323168754175, 21.022334803528317, -40.082506398602725, 62.27751437259315, 62.58581840366158 
-167.03140884575126, 8.65031976001417, 21.022538843638433, -40.436569724913255, 62.71059774888309, 62.58180589741877 
-167.93173363882752, 8.360746282684442, 21.022734036695383, -40.78626363828983, 63.14533616966283, 62.57782179927831 
-168.83254109415165, 8.074675666468355, 21.022920543233965, -41.131412671705526, 63.58169299356485, 62.57386783659272 
-169.73386933253917, 7.792180251418709, 21.023098529926145, -41.47182806266949, 64.01963129387711, 62.5699457358629 
-170.63575466559442, 7.5133317728164215, 21.023268169256433, -41.80730652960973, 64.45911382647597, 62.56605722158312 
-171.53823158432652, 7.2382013450305696, 21.0234296391915, -42.1376289136984, 64.90010299410031, 62.562204015076354 
-172.4413327485726, 6.966859444375114, 21.023583122844396, -42.462558668537795, 65.34256080649868, 62.55838783332055 
-173.34508897728452, 6.69937589098002, 21.023728808133857, -42.78184017746563, 65.78644883590925, 62.55461038776728 
-174.2495292397347, 6.435819829696867, 21.023866887439148, -43.09519687511951, 66.23172816724698, 62.550873383154126 
-175.15468064770184, 6.176259710060982, 21.023997557250887, -43.40232914623558, 66.67835934227355, 62.54717851631141 
-176.06056844869755, 5.920763265334923, 21.024121017818302, -43.70291197033383, 67.12630229690707, 62.54352747496493 
-176.96721602029692, 5.669397490660041, 21.02423747279344, -43.996592275833486, 67.57551629068927, 62.539921936535684 
-177.874644865638, 5.42222862034557, 21.024347128872705, -44.28298596108206, 68.02595982726167, 62.53636356693779 
-178.78287461015543, 5.179322104326912, 21.02445019543629, -44.56167453257389, 68.47759056450461, 62.532854019375904 
-179.69192299961472, 4.940742583827319, 21.024546884185927, -44.8322013020324, 68.93036521275546, 62.529394933143244 
179.3981941004865, 4.7065538662595365, 21.024637408781444, -45.09406707373201, 69.38423941923853, 62.525987932421515 
178.48746270408245, 4.476818899406274, 21.02472198447658, -45.34672524106388, 69.839167636496, 62.522634625084045 
177.57587070220316, 4.251599744921115, 21.024800827754632, -45.589576196433995, 70.29510297219446, 62.51933660150324 
176.66340785907173, 4.030957551193404, 21.024874155964266, -45.82196094053573, 70.7519970171781, 62.51609543336364 
175.7500658065701, 3.8149525256234305, 21.02494218695612, -46.043153755119654, 71.20979964802527, 62.51291267248191 
174.83583803701038, 3.60364390635623, 21.02500513872056, -46.252353776660044, 71.66845879961339, 62.50978984963504 
173.92071989414964, 3.397089933524722, 21.02506322902714, -46.44867527560338, 72.12792020227168, 62.50672847339774 
173.00470856238857, 3.195347820055099, 21.02511667506622, -46.63113640567116, 72.58812707695957, 62.50373002899061 
172.08780305409752, 2.9984737220894715, 21.025165693093165, -46.79864613804808, 73.04901978048875, 62.50079597714021 
171.17000419501548, 2.8065227090827616, 21.025210498075698, -46.9499890337341, 73.51053539103876, 62.49792775295199 
170.25131460767128, 2.6195487336328616, 21.02525130334478, -47.0838074306708, 73.97260722199658, 62.49512676479807 
169.33173869278002, 2.4376046011048116, 21.0252883202495, -47.19858052631045, 74.43516424935432, 62.49239439322003 
168.41128260857198, 2.2607419391115333, 21.02532175781644, -47.29259971565935, 74.8981304343541, 62.48973198984887 
167.4899542480147, 2.08901116691508, 21.02535182241398, -47.36393939239085, 75.3614239185501, 62.487140876342714 
166.5677632138955, 1.9224614648139706, 21.025378717421933, -47.41042222704615, 75.82495606266131, 62.484622343343844 
165.64472079173444, 1.7611407435832034, 21.025402642907018, -47.42957768926603, 76.28863029310827, 62.48217764945597 
164.72083992050565, 1.6050956140348014, 21.025423795304505, -47.418592264028064, 76.75234071041005, 62.479808020243006 
163.7961351611484, 1.4543713567676324, 21.025442367106557, -47.37424940315314, 77.21597040091157, 62.47751464725046 
162.87062266285744, 1.3090118921757687, 21.02545854655758, -47.292856723693795, 77.6793893765788, 62.47529868705054 
161.94432012714637, 1.1690597507854226, 21.025472517357095, -47.17015727511334, 78.1424520454086, 62.47316126031214 
161.01724676968556, 1.0345560439905646, 21.02548445837038, -47.00122079499108, 78.60499408535051, 62.47110345089662 
160.08942327992324, 0.9055404352575432, 21.025494543347413, -46.78030968818372, 79.06682855472606, 62.4691263049805 
159.16087177850346, 0.7820511118688004, 21.02550294065036, -46.500712903478345, 79.52774101799429, 62.46723083020611 
158.23161577250372, 0.6641247572754095, 21.025509812990073, -46.154538821518265, 79.98748339171931, 62.46541799486136 
157.30168010852069, 0.5517965241275562, 21.025515317171877, -45.732455548577924, 80.44576611370637, 62.46368872708893 
156.37109092364065, 0.4451000080511393, 21.025519603850984, -45.22336343291225, 80.90224809696932, 62.46204391412665 
155.43987559433776, 0.34406722223772085, 21.025522817297926, -44.61397994991432, 81.3565237329646, 62.46048440157939 
154.50806268335117, 0.24872857291342043, 21.02552509517421, -43.888311102108744, 81.80810593178622, 62.45901099272339 
153.57568188459888, 0.15911283575103466, 21.025526568318586, -43.02697600193606, 82.25640379742502, 62.45762444784434 
152.64276396619297, 0.07524713328763695, 21.025527360544174, -42.00634251975082, 82.70069298767004, 62.45632548360896 
151.70934071162904, -0.002843086592239364, 21.02552758844669, -40.79742280685328, 83.14007603995293, 62.455114772472044 
150.775444859228, -0.07513407104983932, 21.025527361224068, -39.364471190414086, 83.57342888371976, 62.45399294211868 
149.8411100399165, -0.1416037815066947, 21.025526780507736, -37.663230974863595, 83.99932834034439, 62.45296057494298 
148.90637071343696, -0.20223191162784607, 21.025525940205657, -35.63880841031619, 84.41595363231454, 62.45201820756342 
147.97126210308664, -0.25699990402432826, 21.025524926357495, -33.22324880195414, 84.82095301017188, 62.451166330375884 
147.03582012908828, -0.305890965628738, 21.025523817001968, -30.333126992319688, 85.21126540570103, 62.450405387144414 
146.1000813407024, -0.34889008170095387, 21.025522682056693, -26.867982669201048, 85.5828888835012, 62.44973577463066 
145.1640828471954, -0.3859840284248946, 21.02552158321048, -22.71145161605467, 85.93059816670598, 62.44915784226194 
144.22786224778278, -0.41716138406086356, 21.025520573828505, -17.738686975389154, 86.24764399848574, 62.448671891839005 
143.29145756066993, -0.4424125386218757, 21.025519698870195, -11.835901949557522, 86.5255354715875, 62.44827817728308 
142.35490715131817, -0.4617297020466951, 21.025518994820143, -4.938656047029724, 86.7541254059545, 62.447976904423044 
141.41824966006575, -0.4751069108461578, 21.02551848963203, 2.9105874305146764, 86.92234803633322, 62.44776823082276 
140.4815239292367, -0.48254003320393, 21.02551820268572, 11.504872808996602, 87.01991941682675, 62.44765226564908 
139.54476892987182, -0.48402677251713494, 21.025518144757427, 20.46076924248497, 87.03982080472147, 62.44762906957977 
138.6080236882197, -0.4795666693666022, 21.025518318003225, 29.29297914788453, 86.98051130789864, 62.447698654753026 
137.67132721212334, -0.4691611019112481, 21.02551871595574, 37.55227451248394, 86.84647058358907, 62.44786098475695 
136.73471841744208, -0.45281328470529186, 21.025519323534024, 44.94001937551223, 86.64667803972254, 62.44811597466041 
135.79823605464512, -0.43052826594186716, 21.02552011706676, 51.33714827826293, 86.39208389556228, 62.44846349108401 
134.86191863571483, -0.4023129231307795, 21.02552106432862, 56.76263219602796, 86.09344265719808, 62.44890335231233 
133.92580436149476, -0.3681759572228545, 21.025522124589774, 61.31171671713855, 85.76011557014033, 62.44943532844626 
132.98993104961664, -0.3281278851976185, 21.025523248678468, 65.10719655719184, 85.39970758501185, 62.450059141595624 
132.0543360631378, -0.2821810311354688, 21.025524379056648, 68.27120075081464, 85.01817005637604, 62.45077446611239 
131.1190562400177, -0.23034951579959698, 21.025525449908432, 70.91256614069431, 84.62007881163942, 62.451580928862974 
130.18412782355813, -0.17264924475733232, 21.025526387241413, 73.1231484288909, 84.20893295098064, 62.45247810954068 
129.24958639392892, -0.10909789507414694, 21.0255271090006, 74.9783608231591, 83.78741339678922, 62.45346554101673 
128.31546680089568, -0.03971490061794429, 21.025527525194818, 76.53931389506222, 83.35758716863856, 62.454542709730475 
127.38180309786095, 0.03547856398557803, 21.02552753803552, 77.85529490365377, 82.92106198250454, 62.455709056117364 
126.4486284773263, 0.11645960070173966, 21.025527042087667, 78.96606240566746, 82.47910096245661, 62.45696397507492 
125.5159752078757, 0.20320360669213874, 21.02552592443259, 79.9037870341765, 82.03270714194632, 62.45830681646573 
124.5838745727755, 0.295684294125262, 21.025524064842617, 80.69462349594981, 81.58268570409216, 62.45973688565709 
123.65235681027963, 0.3938737111385777, 21.02552133596716, 81.35995654676665, 81.12969001039917, 62.46125344409645 
122.72145105572274, 0.4977422638955295, 21.02551760353001, 81.91737848998412, 80.67425585949682, 62.462855709922245 
121.79118528547599, 0.6072587396783521, 21.02551272653779, 82.38145321452583, 80.21682718370236, 62.46454285860896 
120.86158626283486, 0.7223903309554716, 21.025506557498925, 82.76431351265202, 79.75777548613799, 62.46631402364629 
119.93267948590018, 0.8431026603601718, 21.02549894265319, 83.07612927330386, 79.29741467124445, 62.46816829725091 
119.00448913750644, 0.9693598065156763, 21.025489722211326, 83.32547595830636, 78.83601245913786, 62.470104731110695 
118.07703803724496, 1.101124330640043, 21.02547873060444, 83.5196260359955, 78.37379924598545, 62.47212233715979 
117.15034759562144, 1.2383573038632527, 21.025465796742974, 83.6647807388102, 77.91097503908178, 62.47422008838435 
116.22443777038076, 1.3810183351877823, 21.025450744284672, 83.76625541786197, 77.4477149284897, 62.476396919657546 
115.2993270250239, 1.529065600023136, 21.02543339191149, 83.82862864639864, 76.98417343722505, 62.47865172860284 
114.37503228953636, 1.6824558692245548, 21.0254135536148, 83.85586285677816, 76.5204880052155, 62.48098337648507 
113.4515689233379, 1.8411445385655043, 21.02539103898869, 83.85140250253345, 76.05678179903268, 62.48339068912749 
112.52895068045997, 2.0050856585737815, 21.025365653530912, 83.8182543776446, 75.5931659929579, 62.485872457854526 
111.60718967694733, 2.1742319646611317, 21.025337198951085, 83.75905369172732, 75.12974163257444, 62.48842744045865 
110.68629636047595, 2.3485349074767465, 21.02530547348577, 83.67611871145296, 74.66660116645194, 62.49105436219031 
109.76627948217296, 2.5279446834154484, 21.02527027221991, 83.57149617446758, 74.2038297122383, 62.493751916770144 
108.84714607061751, 2.712410265212489, 21.02523138741439, 83.44699921709659, 73.74150610890422, 62.49651876742201 
107.92890140799697, 2.901879432557481, 21.025188608839102, 83.30423919742101, 73.27970379578522, 62.49935354792571 
107.01154900838701, 3.0962988026615212, 21.025141724111144, 83.14465251564249, 72.8184915505461, 62.502254863688286 
106.0950905981194, 3.295613860712646, 21.025090519037775, 82.96952331509594, 72.35793411161444, 62.50522129283284 
105.17952609819629, 3.499768990156387, 21.02503477796358, 82.78000277559806, 71.89809270551437, 62.508251387303304 
104.26485360870676, 3.708707502739677, 21.024974284121402, 82.5771255752965, 71.4390254955336, 62.51134367398447 
103.35106939519557, 3.9223716682583967, 21.024908819986646, 82.36182398966531, 70.98078796500862, 62.51449665583536 
102.43816787693247, 4.140702743950342, 21.024838167634407, 82.13494001057904, 70.52343324602575, 62.51770881303551 
101.52614161702655, 4.363641003477678, 21.024762109098994, 81.89723579974057, 70.0670124023537, 62.52097860414213 
100.6149813143265, 4.591125765444982, 21.02468042673539, 81.64940273549199, 69.61157467384156, 62.52430446725755 
99.70467579704714, 4.82309542140093, 21.02459290358214, 81.39206926738296, 69.15716768824285, 62.52768482120538 
98.795212018059, 5.059487463274187, 21.02449932372517, 81.12580775661989, 68.70383764539932, 62.53111806671405 
97.88657505177711, 5.300238510196098, 21.02439947266214, 80.85114045096648, 68.25162947788456, 62.53460258760662 
96.97874809258305, 5.545284334665369, 21.0242931376668, 80.56854471847619, 67.80058699152775, 62.53813675199576 
96.07171245471498, 5.794559888011963, 21.024180108152816, 80.2784576445576, 67.35075298868311, 62.541718913482455 
95.16544757355796, 6.047999325120246, 21.0240601760367, 79.98128008047466, 66.90216937665215, 62.54534741235695 
94.25993100826841, 6.305536028373341, 21.023933136099284, 79.67738021780572, 66.45487726329087, 62.54902057680138 
93.35513844566582, 6.567102630783636, 21.023798786345267, 79.36709675210247, 66.00891704151982, 62.55273672409217 
92.45104370532584, 6.832631038276212, 21.02365692836044, 79.05074168958228, 65.56432846419753, 62.55649416180139 
91.54761874580973, 7.102052451094839, 21.02350736766599, 78.72860284281639, 65.1211507105994, 62.560291188995656 
90.64483367196591, 7.375297384302449, 21.023349914069485, 78.40094605477039, 64.6794224455645, 62.56412609743159 
89.74265674324175, 7.65229568735011, 21.023184382012168, 78.06801718499118, 64.23918187221938, 62.56799717274625 
88.84105438294466, 7.932976562691372, 21.023010590911884, 77.73004388703694, 63.8004667790606, 62.571902695642045 
87.93999118839417, 8.21726858342061, 21.022828365501415, 77.38723720226835, 63.36331458206866, 62.575840943064144 
87.03942994190882, 8.505099709916818, 21.02263753616155, 77.03979299173848, 62.92776236243452, 62.579810189369944 
86.1393316225747, 8.796397305475953, 21.02243793924873, 76.68789322504163, 62.49384690040171, 62.58380870748904 
85.23965541874418, 9.091088150917793, 21.02222941741653, 76.33170714252111, 62.061604705660166, 62.58783477007288 
84.34035874121857, 9.389098458154667, 21.02201181993074, 75.9713923051317, 61.631072044671676, 62.591886650632716 
83.44139723706913, 9.690353882712243, 21.02178500297764, 75.60709554444531, 61.20228496525701, 62.595962624665226 
82.5427248040568, 9.994779535194034, 21.021548829964882, 75.2389538237324, 60.77527931873389, 62.600060970764254 
81.64429360561326, 10.302299991683554, 21.021303171814786, 74.86709501971146, 60.350090779858384, 62.60417997171806 
80.74605408635003, 10.612839303080069, 21.02104790724953, 74.49163863339801, 59.92675486479092, 62.608317915591044 
79.84795498806734, 10.926321003365468, 21.02078292306787, 74.11269643748079, 59.50530694728165, 62.612473096788534 
78.94994336623739, 11.242668116802044, 21.02050811441303, 73.73037306677914, 59.08578227324606, 62.61664381710457 
78.05196460694239, 11.561803164062404, 21.020223385031475, 73.34476655757707, 58.668215973881814, 62.620828386750695 
77.15396244425138, 11.883648167294792, 21.01992864752197, 72.95596884096715, 58.25264307745953, 62.62502512536588 
76.25587897802517, 12.208124654128536, 21.01962382357498, 72.56406619475865, 57.83909851990538, 62.629232363006 
75.35765469214331, 12.53515366062642, 21.01930884420171, 72.16913965799823, 57.427617154279375, 62.633448441112456 
74.45922847315236, 12.864655733191979, 21.018983649952613, 71.77126541170706, 57.0182337592418, 62.63767171345892 
73.56053762933982, 13.196550929441658, 21.018648191125184, 71.37051512904837, 56.610983046589446, 62.641900547075494 
72.66151791024268, 13.530758818053382, 21.018302427960542, 70.96695629779504, 56.20589966793438, 62.646133323149776 
71.7621035266068, 13.867198477604415, 21.017946330828668, 70.56065251766526, 55.80301822059023, 62.650368437903474 
70.86222717081645, 14.205788494413369, 21.01757988040194, 70.15166377482497, 55.40237325272318, 62.65460430344493 
69.9618200378216, 14.546446959402306, 21.017203067816837, 69.74004669562089, 55.00399926781945, 62.65883934859578 
69.06081184659391, 14.88909146399707, 21.016815894823445, 69.32585478139632, 54.60793072851478, 62.66307201969202 
68.15913086215068, 15.233639095084852, 21.016418373922644, 68.90913862605737, 54.214202059827045, 62.66730078135853 
