# MEX_intpoint_lon [deg], MEX_intpoint_lat [deg], MEX_intpoint_angle [deg], TGO_intpoint_lon [deg], TGO_intpoint_lat [deg], TGO_intpoint_angle [deg] 
-138.89942905322602, 19.491737595733994, 21.489615634350837, -27.6806996752324, 44.32493327469822, 62.8286956044975 
-139.79940419469105, 19.10463308060144, 21.49018365571706, -28.004455543600372, 44.72231553662551, 62.82414536175955 
-140.69775754464956, 18.71857915603788, 21.490740591140227, -28.323913729946, 45.12237278809801, 62.819564981550386 
-141.5945868318045, 18.33366835636669, 21.491286284329213, -28.638985719401532, 45.52505766009316, 62.81495589900855 
-142.48998832928297, 17.94999256440011, 21.491820592422933, -28.949579268843245, 45.93032245732721, 62.810319586699926 
-143.38405682867418, 17.56764303169159, 21.49234338600562, -29.255598181185746, 46.33811914007677, 62.80565755411231 
-144.27688561531824, 17.186710397920564, 21.492854549105946, -29.556942066256845, 46.748399304295894, 62.80097134710496 
-145.1685664447085, 16.80728470937198, 21.493353979179997, -29.853506087290153, 47.161114159923656, 62.79626254731373 
-146.05918951988116, 16.429455436474814, 21.493841587078023, -30.14518069199439, 47.576214507268546, 62.79153277151116 
-146.94884346967342, 16.053311490366273, 21.494317296995288, -30.431851327073872, 47.99365071134553, 62.78678367092289 
-147.8376153277429, 15.67894123844972, 21.494781046406892, -30.71339813498323, 48.413372674030576, 62.78201693049979 
-148.72559051224786, 15.30643251891704, 21.495232785986857, -30.989695631598767, 48.835329803885124, 62.777234268146856 
-149.6128528060983, 14.935872654207119, 21.495672479511526, -31.26061236338142, 49.25947098348949, 62.77243743390916 
-150.49948433769563, 14.567348463374108, 21.49610010374742, -31.526010542487253, 49.68574453410977, 62.767628209114996 
-151.38556556208698, 14.200946273340946, 21.496515648323857, -31.785745658153733, 50.11409817750563, 62.7628084054773 
-152.27117524246893, 13.836751929014563, 21.496919115590316, -32.03966606255012, 50.54447899466979, 62.75797986415377 
-153.15639043198254, 13.474850802241335, 21.49731052045905, -32.28761252912809, 50.976833381268825, 62.753144454765945 
-154.04128645574983, 13.115327799582113, 21.497689890232802, -32.529417781343895, 51.41110699953436, 62.74830407437858 
-154.92593689310954, 12.758267368888237, 21.498057264418303, -32.76490598944299, 51.847244726329166, 62.7434606464395 
-155.8104135600169, 12.403753504660694, 21.498412694525452, -32.99389223280203, 52.28519059708638, 62.738616119681026 
-156.69478649157926, 12.051869752176554, 21.498756243852675, -33.21618192511096, 52.72488774529097, 62.7337724669838 
-157.5791239247073, 11.702699210367692, 21.49908798725867, -33.431570199445105, 53.166278337140355, 62.72893168420369 
-158.4634922808671, 11.35632453343868, 21.49940801092092, -33.63984125002614, 53.60930350098543, 62.72409578896285 
-159.34795614892633, 11.012827931211726, 21.49971641208125, -33.840767627196534, 54.05390325111415, 62.71926681940604 
-160.2325782680933, 10.672291168188414, 21.50001329877881, -34.03410948183496, 54.50001640539603, 62.71444683292286 
-161.11741951095414, 10.334795561319163, 21.500298789570802, -34.219613755117535, 54.947580496257906, 62.70963790483739 
-162.00253886662068, 10.000421976473088, 21.500573013241407, -34.39701330917979, 55.396531674408145, 62.70484212706595 
-162.8879934240056, 9.669250823602432, 21.500836108499257, -34.566025993856435, 55.84680460466704, 62.700061606744434 
-163.77383835524935, 9.34136205059745, 21.501088223663835, -34.72635364426555, 56.29833235319617, 62.695298464826365 
-164.6601268993275, 9.01683513582938, 21.501329516341247, -34.877681003563715, 56.75104626534606, 62.69055483465268 
-165.54691034587373, 8.695749079380818, 21.501560153089883, -35.019674564722486, 57.20487583326211, 62.68583286049486 
-166.43423801925803, 8.378182392964886, 21.501780309076203, -35.151981324666735, 57.659748552298105, 62.68113469607247 
-167.32215726296644, 8.064213088536246, 21.501990167721363, -35.27422744357015, 58.11558976518847, 62.67646250304668 
-168.21071342433135, 7.753918665599375, 21.50218992033893, -35.386016801521535, 58.57232249281948, 62.67181844949094 
-169.0999498396682, 7.447376097221347, 21.502379765764303, -35.48692944415946, 59.02986725031791, 62.66720470834046 
-169.98990781987814, 7.144661814758756, 21.50255990997629, -35.5765199082242, 59.488141847039614, 62.662623455821844 
-170.88062663658033, 6.845851691310517, 21.502730565711282, -35.65431541729741, 59.947061168890116, 62.65807686986452 
-171.7721435088418, 6.551021023910896, 21.502891952070666, -35.71981393729825, 60.406536941241825, 62.653567128495204 
-172.66449359057714, 6.260244514479396, 21.503044294121846, -35.77248208058798, 60.866477470527435, 62.649096408217474 
-173.55770995869307, 5.973596249546507, 21.503187822493505, -35.811752846815004, 61.326787362383804, 62.644666882377635 
-174.45182360205663, 5.6911496787775, 21.503322772965575, -35.8370231879259, 61.78736721399307, 62.64028071951863 
-175.34686341136896, 5.412977592318379, 21.503449386054484, -35.84765138409835, 62.248113278016945, 62.63594008172388 
-176.24285617002846, 5.139152096991525, 21.50356790659425, -35.84295421674795, 62.70891709524223, 62.63164712295229 
-177.13982654607042, 4.869744591370977, 21.503678583313913, -35.822203924264954, 63.16966509275135, 62.62740398736676 
-178.03779708527173, 4.604825739770377, 21.50378166841184, -35.78462492579859, 63.63023814409537, 62.62321280765725 
-178.93678820551062, 4.344465445179395, 21.50387741712766, -35.72939029829761, 64.09051108758098, 62.61907570336082 
-179.83681819247317, 4.088732821187631, 21.503966087312037, -35.6556179922204, 64.55035219838237, 62.61499477917993 
179.2620968032016, 3.8376961629377933, 21.504047938995235, -35.56236677196193, 65.00962260975565, 62.610972123300996 
178.35994276724472, 3.5914229171530416, 21.504123233954708, -35.448631868251276, 65.46817567816665, 62.60700980571509 
177.45670782145677, 3.34997965128655, 21.50419223528255, -35.31334033173496, 65.92585628664347, 62.6031098765424 
176.5523822216909, 3.1134320218441416, 21.504255206953136, -35.15534607991029, 66.38250008013902, 62.59927436436259 
175.64695835402892, 2.881844741934191, 21.504312413391744, -34.97342463379979, 66.83793262613911, 62.59550527455249 
174.74043072906096, 2.655281548101605, 21.50436411904451, -34.76626754662723, 67.29196849319078, 62.591804587633284 
173.83279597418044, 2.4338051665060547, 21.504410587950492, -34.53247653472308, 67.7444102394677, 62.588174257629056 
172.92405282380997, 2.217477278507145, 21.50445208331618, -34.27055733151298, 68.19504730295482, 62.58461621043823 
172.01420210747543, 2.0063584857223518, 21.50448886709327, -33.97891329942344, 68.64365478435573, 62.58113234222014 
171.10324673565003, 1.8005082746260923, 21.504521199559953, -33.655838852717274, 69.0899921134421, 62.577724517798295 
170.19119168329303, 1.5999849807609292, 21.504549338906596, -33.29951276767687, 69.53380158933439, 62.574394569082344 
169.27804397101337, 1.4048457526345295, 21.50457354082603, -32.90799148641433, 69.97480678520041, 62.5711442935104 
168.3638126437931, 1.2151465153782883, 21.504594058109326, -32.47920255836053, 70.41271080818309, 62.56797545251376 
167.44850874721038, 1.0309419342456438, 21.504611140247228, -32.010938410864874, 70.8471944061533, 62.564889770005564 
166.53214530110898, 0.8522853780303385, 21.504625033038113, -31.50085069925452, 71.2779139142939, 62.56188893089548 
165.6147372706666, 0.6792288824864584, 21.50463597820271, -30.946445559290552, 71.70449903677313, 62.55897457963183 
164.69630153482183, 0.511823113833983, 21.50464421300626, -30.345080173481644, 72.12655046212967, 62.55614831877317 
163.77685685202698, 0.3501173324347092, 21.504649969888632, -29.69396116941679, 72.54363731580236, 62.553411707590875 
162.85642382330158, 0.19415935672481546, 21.50465347610264, -28.99014549512888, 72.95529445990454, 62.5507662607046 
161.93502485256917, 0.043995527490989256, 21.504654953361396, -28.230544564806607, 73.36101965935208, 62.548213446751966 
161.01268410426906, -0.10032932742215826, 21.504654617494825, -27.41193263796551, 73.76027064537038, 62.545754687094444 
160.08942745824356, -0.2387719278852946, 21.50465267811609, -26.530960584359285, 74.15246212285915, 62.54339135456068 
159.1652824619097, -0.37129057565024953, 21.504649338298094, -25.584176390001918, 74.53696278775121, 62.541124772229004 
158.2402782797339, -0.49784518782070036, 21.5046447942607, -24.568053966265257, 74.91309244500796, 62.53895621225083 
157.31444564003812, -0.6183973295403581, 21.504639235068982, -23.479032016744323, 75.28011934777939, 62.536886894715735 
156.38781677917504, -0.7329102458124087, 21.504632842342925, -22.313564868753673, 75.63725791378405, 62.53491798656034 
155.46042538311934, -0.841348892364953, 21.50462578997893, -21.06818724946064, 75.98366701591777, 62.533050600522145 
154.53230652653275, -0.9436799654789009, 21.504618243883545, -19.73959492841305, 76.31844908948274, 62.531285794139286 
153.6034966093693, -1.0398719306966273, 21.504610361719774, -18.32474289141057, 76.64065034609878, 62.52962456879785 
152.67403329109743, -1.129895050331766, 21.50460229266618, -16.820962174935293, 76.94926243058492, 62.52806786882793 
151.74395542262454, -1.2137214097033087, 21.504594177189322, -15.226095588042572, 77.24322589613502, 62.526616580649446 
150.81330297601974, -1.2913249420197463, 21.504586146829585, -13.538651197132584, 77.52143589686041, 62.52527153196869 
149.88211697213868, -1.3626814518424584, 21.50457832400088, -11.757970591658507, 77.78275049475165, 62.52403349102694 
148.950439406263, -1.427768637060755, 21.504570821804368, -9.884406584778134, 78.02600193793074, 62.52290316590182 
148.01831317187697, -1.486566109315073, 21.504563743856462, -7.919502224806624, 78.25001117573808, 62.52188120386255 
147.08578198270885, -1.5390554128085807, 21.504557184131443, -5.866160025507515, 78.45360572248063, 62.520968190779556 
146.15289029317518, -1.5852200414520787, 21.50455122681871, -3.7287875490209523, 78.63564075952412, 62.52016465058964 
145.21968321737072, -1.6250454542914528, 21.504545946195048, -1.5134034339963696, 78.79502307824195, 62.51947104481697 
144.28620644675428, -1.6585190891719495, 21.504541406511947, 0.772312703608845, 78.93073713112744, 62.51888777215082 
143.3525061666863, -1.6856303745984043, 21.504537661898183, 3.1190417276085896, 79.04187210829753, 62.51841516808053 
142.418628971979, -1.7063707397559962, 21.504534756277785, 5.5159292334678, 79.12764864024074, 62.518053504588 
141.48462178162376, -1.7207336226613408, 21.504532723303477, 7.950777727056615, 79.1874435033198, 62.51780298989826 
140.5505317528659, -1.7287144764193387, 21.504531586305692, 10.410323529493517, 79.22081062944396, 62.51766376828854 
139.61640619479738, -1.7303107735669176, 21.504531358257235, 12.880585910729348, 79.22749683716006, 62.517635919955765 
138.6822924816423, -1.725522008490497, 21.504532041753663, 15.347267199129186, 79.2074510202391, 62.51771946094305 
137.74823796591033, -1.7143496979098463, 21.50453362900931, 17.79617602590424, 79.16082602539451, 62.51791434312478 
136.81428989159437, -1.696797379426873, 21.504536101869125, 20.21364276920043, 79.0879730594376, 62.518220454251086 
135.88049530758758, -1.6728706081437372, 21.50453943183613, 22.586897312904075, 78.98942909885972, 62.51863761805058 
134.94690098149562, -1.6425769513605588, 21.504543580114607, 24.90438420736451, 78.86589833688669, 62.51916559439222 
134.01355331401638, -1.6059259813687223, 21.50454849766886, 27.155998185835326, 78.71822911601731, 62.51980407950567 
133.08049825405786, -1.5629292663615155, 21.504554125297542, 29.333232221322913, 78.54738801216858, 62.520552706259515 
132.14778121476155, -1.5136003594895642, 21.504560393723374, 31.429239289396346, 78.35443275326936, 62.5214110444978 
131.21544699059444, -1.4579547860937752, 21.50456722369824, 33.43881641910223, 78.14048549888507, 62.52237860143376 
130.28353967566787, -1.396010029154082, 21.50457452612338, 35.3583246871586, 77.90670772956724, 62.523454822100334 
129.35210258343585, -1.3277855129972027, 21.504582202184704, 37.18556134234606, 77.65427765451552, 62.524639089857416 
128.42117816792094, -1.2533025853118, 21.504590143502814, 38.91960051362448, 77.38437069832001, 62.525930726954336 
127.4908079466062, -1.1725844975238682, 21.50459823229779, 40.56061751921518, 77.0981433132587, 62.52732899514765 
126.56103242512766, -1.0856563835899213, 21.50460634156831, 42.10970931030795, 76.79672010778194, 62.52883309637296 
125.631891023892, -0.9925452372695656, 21.504614335284987, 43.568720653803716, 76.48118409415275, 62.53044217346989 
124.70342200673646, -0.8932798879430838, 21.504622068597655, 44.94008274792281, 76.15256973686301, 62.532155310959894 
123.77566241174024, -0.7878909750432487, 21.504629388056237, 46.226668374440926, 75.81185841927413, 62.53397153587493 
122.8486479842864, -0.6764109211739119, 21.50463613184504, 47.43166557580531, 75.4599759264582, 62.53588981863683 
121.92241311246543, -0.5588739039909945, 21.504642130030085, 48.558470245366145, 75.09779155452875, 62.537909073985645 
120.99699076490145, -0.4353158269241318, 21.50464720481912, 49.610596901363614, 74.72611848930781, 62.540028161956464 
120.07241243107256, -0.30577428881967694, 21.504651170834062, 50.591606207306214, 74.34571514066647, 62.54224588890254 
119.14870806418766, -0.17028855258766004, 21.504653835395423, 51.5050474158108, 73.95728716640797, 62.54456100856417 
118.22590602667167, -0.02889951293732246, 21.5046549988184, 52.35441376474528, 73.56148996644384, 62.54697222318207 
117.30403303830184, 0.11835033671326302, 21.504654454720203, 53.143108869432155, 73.15893147137012, 62.549478184653005 
116.38311412702821, 0.2714169380663518, 21.50465199033819, 53.87442227296596, 72.75017508785741, 62.55207749572729 
115.4631725825011, 0.43025470242510866, 21.50464738685852, 54.55151249316204, 72.33574269596699, 62.55476871124588 
114.54422991232013, 0.5948165457375155, 21.50464041975471, 55.17739610701066, 71.9161176206471, 62.55755033941611 
113.626305801009, 0.765053924115571, 21.50463085913577, 55.75494162003764, 71.49174752166871, 62.560420843124 
112.70941807171229, 0.9409168697418824, 21.504618470103424, 56.286867065051354, 71.06304716373255, 62.56337864128192 
111.79358265060128, 1.1223540270762433, 21.504603013117904, 56.77574045467891, 70.63040104208137, 62.56642211020973 
110.87881353396727, 1.3093126892756093, 21.504584244371976, 57.223982371249456, 70.1941658493397, 62.56954958504806 
109.96512275797413, 1.5017388347418472, 21.50456191617247, 57.63387011505906, 69.75467277707463, 62.57275936120148 
109.05252037103247, 1.6995771637129136, 21.50453577732907, 58.00754294861283, 69.31222965125505, 62.57604969581047 
108.14101440875231, 1.9027711348147214, 21.504505573549643, 58.34700807177907, 68.86712290482718, 62.579418809249816 
107.2306108714234, 2.1112630014925755, 21.504471047841683, 58.65414704306172, 68.41961939339474, 62.58286488665237 
106.32131370396638, 2.3249938482429835, 21.504431940919414, 58.93072242767171, 67.9699680617939, 62.58638607945547 
105.41312477829268, 2.5439036265689636, 21.5043879916158, 59.178384505971934, 67.51840147042574, 62.58998050696922 
104.5060438780049, 2.767931190583869, 21.50433893729919, 59.39867791821914, 67.06513719074565, 62.59364625796407 
103.60006868536541, 2.997014332191696, 21.50428451429382, 59.59304815514709, 66.61037907945617, 62.597381392276105 
102.69519477045642, 3.2310898157738634, 21.504224458303717, 59.76284783040019, 66.15431844082205, 62.60118394242829 
101.79141558245097, 3.470093412315542, 21.504158504839562, 59.90934269147945, 65.69713508621147, 62.60505191526566 
100.88872244291098, 3.7139599329072532, 21.504086389647657, 60.03371734182453, 65.2389982995294, 62.60898329360274 
99.98710454102623, 3.9626232615602213, 21.504007849140788, 60.1370806588638, 64.78006771669855, 62.61297603788133 
99.0865489307052, 4.216016387277073, 21.5039226208301, 60.220470902083, 64.32049412679365, 62.617028087836644 
98.18704052942786, 4.474071435322251, 21.503830443757668, 60.28486051201753, 63.86042020187318, 62.62113736417022 
97.2885621187683, 4.736719697639815, 21.50373105892901, 60.331160606072245, 63.39998116199564, 62.625301770227566 
96.39109434649546, 5.003891662368895, 21.50362420974512, 60.360225180618215, 62.939305381369515, 62.62951919367866 
95.49461573015876, 5.275517042410686, 21.50350964243335, 60.3728550312402, 62.47851494107128, 62.63378750819987 
94.5991026620665, 5.551524803003223, 21.503387106476612, 60.369801404566125, 62.017726133283624, 62.6381045751549 
93.70452941556496, 5.831843188263956, 21.50325635504036, 60.35176939600983, 61.557049921555084, 62.64246824527351 
92.81086815252749, 6.116399746662375, 21.50311714539676, 60.3194211081622, 61.09659236116587, 62.646876360326004 
91.91808893196412, 6.405121355388515, 21.50296923934552, 60.27337858460091, 60.636454983301284, 62.65132675479156 
91.02615971966355, 6.697934243585751, 21.50281240363076, 60.21422653365532, 60.17673514638317, 62.65581725751915 
90.13504639878283, 6.994764014419133, 21.502646410353503, 60.142514856239444, 59.71752635759006, 62.660345693378765 
89.24471278130083, 7.295535665953537, 21.502471037379124, 60.05876099130896, 59.25891856730534, 62.664909884901775 
88.35512062025583, 7.600173610818354, 21.50228606873924, 59.963452091858294, 58.8009984389693, 62.6695076539085 
87.46622962268994, 7.908601694638359, 21.50209129502758, 59.857047043681504, 58.34384959657135, 62.67413682312125 
86.57799746322671, 8.220743213212625, 21.501886513789277, 59.7399783384061, 57.887552851803115, 62.67879521776165 
85.69037979821195, 8.536520928426379, 21.50167152990301, 59.612653811587485, 57.43218641269779, 62.683480667130226 
84.80333028035186, 8.85585708288239, 21.50144615595561, 59.47545825594264, 56.97782607540538, 62.688191006167216 
83.91680057378652, 9.178673413241581, 21.501210212608523, 59.32875491910941, 56.52454540059428, 62.692924076992455 
83.03074036954152, 9.504891162264146, 21.50096352895573, 59.172886894654724, 56.07241587582729, 62.697677730423536 
82.14509740130516, 9.834431089544939, 21.50070594287255, 59.00817841442151, 55.62150706513106, 62.702449827470595 
81.2598174614829, 10.167213480939052, 21.500437301355014, 58.83493604970555, 55.171886746861574, 62.707238240805815 
80.37484441748707, 10.503158156675118, 21.5001574608492, 58.653449828190084, 54.72362104086443, 62.712040856207565 
79.49012022822363, 10.842184478156272, 21.499866287570182, 58.463994273037876, 54.27677452583388, 62.71685557397622 
78.60558496074458, 11.18421135344998, 21.499563657810153, 58.26682937004842, 53.83141034769029, 62.72168031032193 
77.72117680703887, 11.529157241470363, 21.499249458235283, 58.062201468329235, 53.38759031971853, 62.72651299872197 
76.83683210094192, 11.876940154857646, 21.498923586170942, 57.850344119505756, 52.9453750151417, 62.731351591247424 
75.9524853351483, 12.2274776615616, 21.49858594987487, 57.63147886009982, 52.50482385274142, 62.736194059857226 
75.06806917831955, 12.580686885136942, 21.49823646879797, 57.405815941343704, 52.06599517608081, 62.741038397659025 
74.1835144922847, 12.936484503760521, 21.497875073832315, 57.17355501036002, 51.62894632683485, 62.74588262013569 
73.29875034933698, 13.294786747981469, 21.497501707546046, 56.93488574632828, 51.19373371268724, 62.75072476633636 
72.41370404963853, 13.655509397216822, 21.497116324404896, 56.689988454974035, 50.76041287021199, 62.755562900031286 
71.52830113874928, 14.01856777500683, 21.496718890979906, 56.43903462445297, 50.329038523119586, 62.76039511082925 
70.6424654253057, 14.38387674304524, 21.496309386141135, 56.182187445461615, 49.89966463621502, 62.76521951525702 
69.7561189988795, 14.751350694001532, 21.49588780123712, 55.919602298183456, 49.47234446538307, 62.77003425779988 
68.86918224805628, 15.120903543153153, 21.4954541402597, 55.65142720847567, 49.047130603889435, 62.77483751190247 
