# MEX_intpoint_lon [deg], MEX_intpoint_lat [deg], MEX_intpoint_angle [deg], TGO_intpoint_lon [deg], TGO_intpoint_lat [deg], TGO_intpoint_angle [deg] 
-138.11470721045683, 19.293962160972416, 20.98386770448911, -27.46338288765247, 50.166763865778755, 62.709216352697865 
-139.03055558964746, 18.935226186104234, 20.98437655832882, -27.91413880442646, 50.52872403320194, 62.70517224378435 
-139.94481210839422, 18.57739307404292, 20.9848761027841, -28.362952219080846, 50.89341069357898, 62.701108642378 
-140.85756274289992, 18.220551970731417, 20.985366196885366, -28.809799199435222, 51.260790312916654, 62.69702681526013 
-141.76889234662272, 17.864791402276644, 20.985846710937693, -29.254654766819417, 51.63082933016639, 62.69292805369282 
-142.6788846165991, 17.510199288529712, 20.986317526536485, -29.697492810997257, 52.00349415960672, 62.688813672984296 
-143.58762206124308, 17.156862956087718, 20.986778536569553, -30.138285999491945, 52.3787511929328, 62.68468501202449 
-144.49518596950864, 16.80486915067619, 20.987229645205684, -30.577005680847538, 52.75656680104397, 62.68054343279079 
-145.4016563813103, 16.45430404887338, 20.987670767869535, -31.01362178131596, 53.13690733552064, 62.67639031982448 
-146.30711205910154, 16.105253269140004, 20.98810183120319, -31.44810269440783, 53.519739129779815, 62.67222707967765 
-147.21163046052052, 15.757801882119793, 20.988522773014243, -31.88041516268938, 53.905028499898144, 62.66805514033137 
-148.1152877120162, 15.41203442017848, 20.98893354221066, -32.31052415114487, 54.29274174508951, 62.663875950584945 
-149.01815858337665, 15.06803488615074, 20.989334098722452, -32.73839271135432, 54.68284514782309, 62.659690979417086 
-149.92031646308814, 14.725886761266134, 20.98972441341033, -33.163981835658674, 55.075304973566205, 62.65550171531902 
-150.82183333445772, 14.385673012227409, 20.990104467961498, -33.58725030039728, 55.47008747013391, 62.65130966560012 
-151.7227797524413, 14.04747609741573, 20.99047425477274, -34.008154497205936, 55.86715886662587, 62.6471163556665 
-152.62322482112327, 13.71137797219951, 20.990833776820885, -34.42664825125454, 56.26648537192819, 62.64292332827288 
-153.52323617180113, 13.37746009332482, 20.991183047521094, -34.84268262518181, 56.66803317275541, 62.63873214274866 
-154.42287994163414, 13.04580342236732, 20.991522090572904, -35.25620570734724, 57.07176843120482, 62.63454437419825 
-155.32222075282084, 12.716488428226906, 20.99185093979435, -35.6671623828664, 57.47765728179203, 62.63036161267646 
-156.22132169227623, 12.389595088648223, 20.992169638944567, -36.075494085722276, 57.88566582793246, 62.626185462339784 
-157.12024429178555, 12.06520289075138, 20.992478241534826, -36.48113853004946, 58.2957601378296, 62.62201754057374 
-158.0190485086161, 11.743390830559237, 20.99277681062849, -36.88402941846606, 58.70790623972552, 62.617859477097404 
-158.91779270657503, 11.424237411508763, 20.99306541863013, -37.284096125078506, 59.122070116463874, 62.61371291304553 
-159.81653363750578, 11.107820641935934, 20.993344147064025, -37.6812633504992, 59.53821769930902, 62.609579500029135 
-160.71532642322143, 10.794218031525121, 20.993613086342407, -38.075450745894656, 59.95631486095783, 62.60546089917543 
-161.61422453787733, 10.483506586715432, 20.993872335523793, -38.46657250271398, 60.376327407672534, 62.601358780147365 
-162.51327979079198, 10.175762805058495, 20.99412200206165, -38.85453690432844, 60.79822107045325, 62.597274820144584 
-163.41254230972817, 9.871062668523392, 20.994362201543815, -39.23924583533405, 61.22196149515883, 62.59321070288543 
-164.31206052465186, 9.569481635746753, 20.99459305742296, -39.62059424372111, 61.64751423147129, 62.589168117571916 
-165.21188115199112, 9.27109463322723, 20.99481470073857, -39.99846955048581, 62.074844720585986, 62.585148757838105 
-166.11204917942035, 8.975976045465918, 20.99502726983064, -40.37275100053658, 62.50391828149265, 62.581154320682664 
-167.0126078512014, 8.684199704055729, 20.995230910045656, -40.74330894791555, 62.934700095694275, 62.577186505386955 
-167.91359865411417, 8.395838875724932, 20.995425773435084, -41.11000406739443, 63.36715519018858, 62.573247012419294 
-168.81506130401613, 8.110966249341939, 20.99561201844695, -41.4726864833926, 63.801248418512195, 62.56933754232685 
-169.71703373307173, 7.829653921890314, 20.995789809610756, -41.831194805876166, 64.2369444396181, 62.565459794615364 
-170.6195520776965, 7.551973383425226, 20.995959317216276, -42.18535506139726, 64.67420769432375, 62.5616154666187 
-171.5226506672644, 7.2779955010246145, 20.996120716986493, -42.534979505686614, 65.11300237902645, 62.55780625235863 
-172.4263620136289, 7.007790501750382, 20.99627418974541, -42.87986530217107, 65.55329241633773, 62.5540338413964 
-173.33071680151244, 6.74142795463719, 20.996419921080822, -43.21979304839683, 65.99504142223326, 62.55029991767645 
-174.23574387981918, 6.478976751728841, 20.99655810100271, -43.55452512952952, 66.43821266925112, 62.54660615836454 
-175.14147025393083, 6.220505088184074, 20.996688923597695, -43.88380387479382, 66.88276904519647, 62.54295423268011 
-176.04792107904476, 5.966080441476445, 20.99681258667999, -44.20734948880402, 67.32867300672088, 62.53934580072526 
-176.95511965461674, 5.715769549714847, 20.99692929143915, -44.524857725103814, 67.77588652703912, 62.53578251231052 
-177.86308741997175, 5.469638389113841, 20.997039242085442, -44.83599726372347, 68.22437103692047, 62.53226600577928 
-178.77184395114693, 5.227752150645225, 20.997142645492907, -45.14040674799212, 68.67408735794059, 62.528797906831514 
-179.68140695903176, 4.990175215904731, 20.997239710840887, -45.43769142797795, 69.12499562680001, 62.52537982734861 
179.4082077111295, 4.756971132230132, 20.997330649254305, -45.727419348485824, 69.57705520929778, 62.52201336421977 
178.4969860788066, 4.528202587109249, 20.997415673443236, -46.009117008157865, 70.03022460228684, 62.51870009817187 
177.58491602575953, 4.303931381919047, 20.99749499734233, -46.28226440245239, 70.48446132161897, 62.515441592603686 
176.67198729205674, 4.084218405039019, 20.99756883575032, -46.546289346549656, 70.9397217737007, 62.512239392425386 
175.75819147047227, 3.86912360438464, 20.99763740397041, -46.800560953837945, 71.39596110780656, 62.50909502290544 
174.84352199919937, 3.6587059594087274, 20.997700917451745, -47.0443821206563, 71.8531330457158, 62.50600998852498 
173.92797415282098, 3.453023452620992, 20.997759591432555, -47.276980837251074, 72.3111896845191, 62.50298577184167 
173.0115450314779, 3.252133040677986, 20.9978136405855, -47.49750010694977, 72.77008126755331, 62.500023832364256 
172.09423354817986, 3.056090625097962, 20.9978632786655, -47.70498620844181, 73.22975591731124, 62.497125605438264 
171.17604041420603, 2.8649510226569577, 20.997908718160737, -47.89837497728511, 73.69015932278599, 62.4942925011453 
170.25696812254608, 2.678767935524455, 20.9979501699471, -48.076475709072156, 74.15123437195734, 62.49152590321565 
169.33702092933498, 2.497593921198654, 20.997987842946646, -48.237952193812475, 74.61292071791249, 62.48882716795695 
168.41620483324093, 2.3214803623031965, 20.998021943790416, -48.3813002733813, 75.07515426426683, 62.48619762319858 
167.49452755276775, 2.150477436308471, 20.998052676486292, -48.50482116385178, 75.53786655192889, 62.48363856725433 
166.57199850143942, 1.984634085242312, 20.998080242091913, -48.60658959215963, 76.00098402457603, 62.48115126790334 
165.648628760839, 1.823997985455874, 20.998104838393544, -48.68441554838338, 76.46442714413016, 62.4787369613913 
164.72443105147923, 1.6686155175115993, 20.998126659591016, -48.73579813273841, 76.92810931956558, 62.476396851452506 
163.79941970148846, 1.518531736261219, 20.998145895989214, -48.75786955535972, 77.39193560188517, 62.474132108354 
162.8736106131004, 1.373790341182148, 20.998162733696606, -48.74732679305739, 77.85580108414781, 62.47194386796324 
161.94702122694355, 1.2344336470413475, 20.99817735433111, -48.70034767351688, 78.31958892672334, 62.46983323083964 
161.01967048413152, 1.1005025549558318, 20.99818993473379, -48.6124871787093, 78.78316790265596, 62.46780126135178 
160.0915787861632, 0.9720365239192651, 20.99820064669062, -48.478548444607085, 79.2463893235005, 62.465848986820575 
159.1627679526471, 0.8490735428636822, 20.998209656662805, -48.292421156096886, 79.70908315845207, 62.46397739669024 
158.2332611768722, 0.73165010332517, 20.998217125525986, -48.04687761476528, 80.1710530934546, 62.462187441727 
157.30308297925455, 0.6198011727816723, 20.998223208318624, -47.73331344019319, 80.63207018404728, 62.46048003324735 
156.37225915869536, 0.5135601687300919, 20.998228053999952, -47.34141529728784, 81.09186462378024, 62.4588560423763 
155.44081674189374, 0.4129589335689776, 20.998231805217802, -46.85873172788096, 81.55011496076408, 62.4573162993365 
154.508783930665, 0.31802771035151073, 20.998234598086565, -46.27011442674423, 82.00643382057527, 62.45586159276924 
153.57619004732123, 0.22879511947209571, 20.99823656197566, -45.55698524706295, 82.46034879212544, 62.45449266908803 
152.64306547817915, 0.1452881363478709, 20.998237819308763, -44.69636776023008, 82.91127653993416, 62.45321023186539 
151.7094416152662, 0.06753207015448004, 20.99823848537397, -43.65960024328252, 83.35848732404743, 62.45201494125396 
150.77535079630312, -0.004449456326872066, 20.99823866814531, -42.41061912326878, 83.80105579224293, 62.45090741344189 
149.84082624304742, -0.07063452569669224, 20.99823846811573, -40.903670396183045, 84.23779194978239, 62.44988822014429 
148.90590199808886, -0.13100294370698437, 20.998237978141745, -39.080281262524196, 84.66714333772292, 62.44895788813003 
147.97061286019317, -0.18553625576494712, 20.99823728330012, -36.865335241692044, 85.087055389132, 62.44811689878538 
147.03499431829735, -0.23421776212494239, 20.99823646075659, -34.162220887958455, 85.49477168485379, 62.44736568771472 
146.09908248426407, -0.2770325317266602, 20.99823557964688, -30.847460133863862, 85.88655055768514, 62.44670464437879 
145.16291402450761, -0.31396741464070077, 20.998234700970205, -26.766395556444497, 86.25727398845561, 62.44613411177087 
144.2265260906094, -0.34501105308689584, 20.998233877495302, -21.73423962587147, 86.59994339248675, 62.44565438613123 
143.2899562490445, -0.37015389099411455, 20.99823315367927, -15.552092195797725, 86.90512977921611, 62.44526571670063 
142.3532424101435, -0.38938818207473, 20.998232565599114, -8.054741907253137, 87.16063570366917, 62.44496830551234 
141.41642275641934, -0.4027079963906881, 20.998232140896306, 0.7927824507294084, 87.35197114101727, 62.444762307223804 
140.47953567038843, -0.4101092253926356, 20.998231898734247, 10.765011909689138, 87.46451616989864, 62.44464782898757 
139.54261966202037, -0.41158958541768254, 20.99823184976882, 21.30620316194588, 87.48763150484662, 62.44462493036178 
138.60571329595007, -0.4071486196358484, 20.998231996132038, 31.651030919454975, 87.41890783436385, 62.44469362326057 
137.66885511858786, -0.39678769843963474, 20.998232331428717, 41.109827712620145, 87.26527565822488, 62.44485387194407 
136.73208358526352, -0.38051001827559205, 20.998232840746347, 49.291137176923854, 87.03995969839136, 62.445105593048226 
135.79543698754046, -0.3583205989212654, 20.99823350067799, 56.11549229605547, 86.75791897925612, 62.4454486556544 
134.85895338083432, -0.3302262792151857, 20.99823427935829, 61.69825271334217, 86.4326417689972, 62.4458828813986 
133.92267051247035, -0.2962357112522451, 20.998235136512452, 66.23023370615485, 86.07493097744917, 62.44640804462033 
132.9866257503118, -0.25635935306080704, 20.998236023518192, 69.90679510786842, 85.69293551781287, 62.447023872550666 
132.05085601208805, -0.21060945978245832, 20.998236883480594, 72.89841815089257, 85.29264476155682, 62.44773004553953 
131.11539769555023, -0.15900007337930322, 20.998237651319652, 75.34381837061596, 84.87843225739223, 62.44852619732185 
130.18028660957714, -0.10154701089791172, 20.998238253870547, 77.35237648551615, 84.45350538721658, 62.44941191532224 
129.2455579063509, -0.038267851322814225, 20.998238609996385, 79.00929936639992, 84.02024004923166, 62.4503867409977 
128.31124601471808, 0.030818078943592515, 20.998238630713356, 80.38083095364506, 83.58041904046183, 62.45145017021849 
127.37738457484585, 0.10568972193438148, 20.99823821932804, 81.51865312494118, 83.13539910809477, 62.45260165368574 
126.4440063742794, 0.18632430526071528, 20.998237271586824, 82.46334645785231, 82.68622774883328, 62.45384059738649 
125.51114328549953, 0.2726973604966697, 20.99823567583703, 83.24702698721254, 82.23372529021586, 62.45516636308448 
124.57882620507469, 0.36478274275598804, 20.99823331319976, 83.89532902988832, 81.77854309310777, 62.45657826884688 
123.64708499449516, 0.46255265140763185, 20.99823005775403, 84.42889115460217, 81.3212052742432, 62.45807558960615 
122.71594842277071, 0.5659776518744043, 20.998225776732177, 84.86447190961884, 80.86213896778203, 62.45965755775614 
121.78544411086628, 0.6750266984564615, 20.998220330725964, 85.21579166077287, 80.40169653723527, 62.46132336378207 
120.85559847804394, 0.7896671581193161, 20.99821357390347, 85.49417194947014, 79.94017207151798, 62.46307215692319 
119.92643669017141, 0.9098648351840048, 20.99820535423622, 85.70902469268943, 79.47781377600413, 62.464903045867956 
118.99798261005188, 1.0355839968554006, 20.998195513736288, 85.86822943334327, 79.01483338187063, 62.46681509948036 
118.07025874982135, 1.166787399523067, 20.998183888703213, 85.97842657825854, 78.55141336547894, 62.46880734755689 
117.14328622545307, 1.3034363157680318, 20.998170309980246, 86.04524713254841, 78.0877125419645, 62.47087878161304 
116.21708471340223, 1.4454905620076146, 20.998154603219618, 86.07349407023307, 77.62387043939286, 62.47302835569865 
115.29167240941581, 1.5929085267099046, 20.998136589156545, 86.06728659057435, 77.16001074926189, 62.47525498724101 
114.36706598952628, 1.7456471991088789, 20.998116083891546, 86.03017567768065, 76.69624407083627, 62.4775575579147 
113.44328057324094, 1.9036621983508621, 20.998092899180698, 85.9652373076642, 76.23267011079494, 62.4799349145374 
112.52032968893162, 2.066907803003067, 20.998066842733532, 85.8751481199628, 75.76937945921173, 62.48238586999034 
111.59822524142375, 2.2353369808549677, 20.998037718518002, 85.76224723611043, 75.3064550333744, 62.48490920416273 
110.67697748177596, 2.408901418943883, 20.998005327072402, 85.62858706258024, 74.84397325921904, 62.48750366491855 
109.75659497923766, 2.587551553736424, 20.99796946582343, 85.47597527738341, 74.38200504401783, 62.49016796908519 
108.83708459536363, 2.7712366013985608, 20.99792992941042, 85.30600971760867, 73.92061658186766, 62.49290080346251 
107.91845146026164, 2.959904588087752, 20.99788651001497, 85.12010751708875, 73.45987002439864, 62.49570082585116 
107.00069895094158, 3.1535023802019495, 20.997838997695684, 84.91952956084452, 72.99982404217256, 62.498566666099215 
106.08382867173214, 3.3519757145214015, 20.997787180727578, 84.7054011046344, 72.54053429691541, 62.501496927165775 
105.16784043672399, 3.555269228180829, 20.997730845945682, 84.47872923817717, 72.08205384061479, 62.50449018620055 
104.25273225419684, 3.763326488410914, 20.997669779092355, 84.24041773782353, 71.62443345431707, 62.507544995637886 
103.3385003129813, 3.976090021990035, 20.997603765167977, 83.9912797499657, 71.16772193695766, 62.510659884304594 
102.42513897070543, 4.193501344348788, 20.99753258878438, 83.73204866380534, 70.71196635259044, 62.51383335853983 
101.51264074387134, 4.415500988271874, 20.997456034520663, 83.463387466335, 70.25721224282306, 62.517063903326225 
100.60099629970435, 4.642028532144104, 20.997373887280965, 83.18589681980063, 69.803503810025, 62.520349983430734 
99.69019444971629, 4.873022627689075, 20.997285932653575, 82.9001220596521, 69.35088407588208, 62.52369004455426 
98.78022214492087, 5.108421027151644, 20.99719195727106, 82.60655927686236, 68.8993950190715, 62.52708251448857 
97.87106447263905, 5.348160609877216, 20.99709174917084, 82.30566062081226, 68.44907769518697, 62.53052580427958 
96.96270465482947, 5.592177408243511, 20.996985098155765, 81.99783893637893, 67.99997234151685, 62.53401830939546 
96.05512404788004, 5.8404066329024165, 20.99687179615423, 81.68347183040628, 67.55211846885224, 62.53755841089874 
95.14830214379461, 6.092782697292352, 20.99675163757939, 81.36290524756596, 67.10555494214915, 62.54114447662074 
94.24221657270965, 6.349239241383427, 20.996624419686817, 81.03645662310342, 66.66032005158148, 62.544774862337505 
93.33684310667542, 6.609709154620664, 20.996489942930445, 80.70441766959962, 66.21645157528215, 62.548447912945775 
92.43215566463728, 6.874124598032279, 20.996348011316034, 80.36705684626533, 65.77398683487247, 62.552161963638234 
91.52812631855298, 7.142417025473004, 20.996198432751843, 80.02462155209882, 65.33296274471452, 62.55591534107602 
90.62472530058335, 7.414517203974465, 20.99604101939601, 79.67734007822374, 64.893415855684, 62.55970636455847 
89.72192101129554, 7.690355233176961, 20.99587558800023, 79.32542334967307, 64.45538239414589, 62.5635333471878 
88.81968002881887, 7.969860563819522, 20.99570196024915, 78.9690664826298, 64.01889829671738, 62.567394597028475 
87.91796711889677, 8.25296201526722, 20.99551996309517, 78.60845017953936, 63.58399924132181, 62.571288418259584 
87.01674524577876, 8.539587792057088, 20.99532942908814, 78.24374198146039, 63.150720674966706, 62.575213112319304 
86.11597558390119, 8.829665499446069, 20.99513019669951, 77.87509739443047, 62.719097838621735, 62.57916697904059 
85.21561753030608, 9.123122157946844, 20.994922110640548, 77.50266090441389, 62.28916578952055, 62.583148317776384 
84.31562871775233, 9.419884216839135, 20.994705022174156, 77.12656689351228, 61.86095942116944, 62.587155428514066 
83.4159650284755, 9.719877566646618, 20.994478789419855, 76.74694046849972, 61.43451348130768, 62.59118661297746 
82.51658060855637, 10.023027550571198, 20.994243277651638, 76.36389821135603, 61.009862588034025, 62.595240175715894 
81.6174278828625, 10.329258974878588, 20.993998359588144, 75.97754886027364, 60.5870412442864, 62.5993144251789 
80.71845757053008, 10.638496118231245, 20.99374391567488, 75.58799392858076, 60.16608385083818, 62.60340767477574 
79.81961870095806, 10.950662739966013, 20.99347983435806, 75.19532826813018, 59.74702471795536, 62.60751824391919 
78.92085863029044, 11.265682087316542, 20.99320601234969, 74.79964058292616, 59.329898075839836, 62.61164445905183 
78.02212305836748, 11.583476901581447, 20.99292235488357, 74.40101389809007, 58.91473808397072, 62.615784654654874 
77.12335604612986, 11.903969423241717, 20.99262877596185, 73.9995259886766, 58.501578839440675, 62.61993717423784 
76.22450003346668, 12.227081396031947, 20.99232519859177, 73.59524977234197, 58.09045438437425, 62.624100371309176 
75.32549585750044, 12.552734069972235, 20.992011555012333, 73.18825366941621, 57.68139871250382, 62.628272610325844 
74.42628277130947, 12.880848203368789, 20.991687786910525, 72.77860193354032, 57.27444577497121, 62.63245226762216 
73.52679846309191, 13.211344063793153, 20.991353845626833, 72.36635495568413, 56.86962948541426, 62.636637732316665 
72.62697907578082, 13.544141428051622, 20.991009692349774, 71.9515695440576, 56.46698372439151, 62.640827407196035 
71.72675922712646, 13.879159581157731, 20.990655298299075, 71.53429918216212, 56.06654234319221, 62.64501970957607 
70.8260720302653, 14.216317314322714, 20.99029064489742, 71.11459426699189, 55.66833916707308, 62.64921307213843 
69.92484911480308, 14.555532921979918, 20.989915723930324, 70.6925023291883, 55.27240799795926, 62.65340594374259 
69.02302064844349, 14.896724197861277, 20.989530537693994, 70.26806823676496, 54.87878261664248, 62.65759679021299 
68.12051535920047, 15.239808430144961, 20.989135099131065, 69.84133438385788, 54.487496784505836, 62.6617840951001 
