# MEX_intpoint_lon [deg], MEX_intpoint_lat [deg], MEX_intpoint_angle [deg], TGO_intpoint_lon [deg], TGO_intpoint_lat [deg], TGO_intpoint_angle [deg] 
-138.0970955514809, 19.289423747533824, 20.972998766791928, -27.437953667638055, 50.2862782457646, 62.706857096882295 
-139.01327519423305, 18.93131351550528, 20.97350635347335, -27.891899065957038, 50.6472654822041, 62.702827630846905 
-139.92786395801545, 18.57410301936907, 20.9740046676915, -28.343964203802212, 51.010976036011, 62.69877888690034 
-140.84094756133914, 18.217881321350973, 20.974493568806604, -28.794127072972717, 51.37737657615044, 62.69471212706531 
-141.7526106069069, 17.86273686472889, 20.974972927408743, -29.24236470703538, 51.74643374693764, 62.69062863758269 
-142.66293654780605, 17.50875748727194, 20.975442625333496, -29.688653101508855, 52.11811417064414, 62.68652972847876 
-143.57200765518076, 17.156030434106835, 20.975902555664184, -30.132967128810485, 52.492384449829, 62.68241673310295 
-144.4799049872703, 16.80464236997083, 20.976352622720423, -30.57528044753016, 52.869211169387405, 62.67829100763615 
-145.38670835970944, 16.45467939081224, 20.976792742033286, -31.01556540555317, 53.24856089830955, 62.67415393056989 
-146.2924963169912, 16.10622703470213, 20.977222840306986, -31.453792936505845, 53.63040019114038, 62.67000690215629 
-147.1973461050006, 15.759370292022554, 20.97764285536735, -31.88993244894571, 54.01469558913123, 62.66585134382965 
-148.10133364453515, 15.414193614898968, 20.978052736096892, -32.32395170765814, 54.401413621071946, 62.66168869759957 
-149.00453350573176, 15.070780925846154, 20.97845244235691, -32.75581670635678, 54.7905208037919, 62.65752042541595 
-149.9070188833308, 14.729215625598872, 20.978841944896608, -33.18549153101171, 55.18198364231618, 62.653348008506484 
-150.80886157270888, 14.389580600100443, 20.9792212252493, -33.61293821294744, 55.575768629661944, 62.64917294668686 
-151.71013194662376, 14.051958226623833, 20.979590275616047, -34.038116570762114, 55.971842246258014, 62.64499675764425 
-152.61089893261666, 13.71643037900194, 20.97994909873678, -34.460984040016484, 56.37017095896882, 62.640820976194505 
-153.511229991026, 13.383078431944977, 20.980297707749067, -34.881495489527225, 56.77072121970137, 62.63664715351337 
-154.41119109357146, 13.051983264424926, 20.980636126034955, -35.29960302296976, 57.17345946357131, 62.63247685634291 
-155.3108467024736, 12.723225262108235, 20.980964387055792, -35.715255764351156, 57.5783521066015, 62.62831166617276 
-156.21025975007964, 12.396884318819863, 20.98128253417557, -36.12839962575039, 57.98536554292245, 62.6241531783976 
-157.10949161897196, 12.073039837023043, 20.981590620472755, -36.538977055538865, 58.394466141441335, 62.62000300145123 
-158.00860212254133, 11.751770727301109, 20.981888708541184, -36.94692676508552, 58.80562024194067, 62.615862755917846 
-158.90764948601282, 11.433155406828877, 20.98217687028003, -37.35218343171541, 59.218794150563994, 62.61173407362128 
-159.80669032791593, 11.11727179682306, 20.982455186673224, -37.754677375422304, 59.633954134639744, 62.607618596692724 
-160.70577964199825, 10.804197318962638, 20.982723747558744, -38.15433420653188, 60.051066416788316, 62.603517976618434 
-161.6049707795846, 10.494008890771681, 20.982982651387907, -38.55107444116612, 60.4700971682505, 62.59943387326703 
-162.50431543238966, 10.186782919959029, 20.983232004975168, -38.944813080963435, 60.891012501366454, 62.5953679538983 
-163.4038636157971, 9.882595297710708, 20.983471923238564, -39.335459153058665, 61.3137784611261, 62.59132189215357 
-164.3036636526215, 9.581521390932853, 20.98370252893138, -39.72291520580881, 61.73836101570004, 62.587297367029244 
-165.2037621573758, 9.283636033444582, 20.983923952365235, -40.10707675515817, 62.16472604584843, 62.5832960618335 
-166.10420402106865, 8.989013516122192, 20.984136331125033, -40.4878316758531, 62.59283933309065, 62.57931966312803 
-167.00503239656354, 8.697727575997794, 20.984339809776124, -40.86505953093132, 63.02266654650258, 62.575369859654906 
-167.90628868453163, 8.40985138431758, 20.9845345395641, -41.23863083200186, 63.45417322798883, 62.57144834125031 
-168.80801252003755, 8.125457533566703, 20.984720678107642, -41.60840622178079, 63.887324775855795, 62.56755679774541 
-169.7102417597985, 7.844618023469808, 20.984898389084766, -41.97423556912811, 64.3220864264857, 62.563696917856035 
-170.6130124701617, 7.567404245978396, 20.985067841912894, -42.335956965411974, 64.7584232338822, 62.55987038806166 
-171.51635891584752, 7.293886969258161, 20.98522921142327, -42.69339560937212, 65.19630004682315, 62.556078891475146 
-172.42031354950933, 7.024136320691812, 20.985382677530037, -43.046362565719356, 65.63568148331619, 62.55232410670398 
-173.32490700216306, 6.758221768914574, 20.985528424894465, -43.394653380440815, 66.07653190200465, 62.54860770670447 
-174.23016807454235, 6.496212104902607, 20.985666642584786, -43.738046533113355, 66.51881537011546, 62.54493135762959 
-175.13612372943751, 6.238175422135917, 20.985797523732046, -44.07630170338549, 66.96249562747516, 62.54129671767205 
-176.0427990850773, 5.984179095860444, 20.985921265182462, -44.40915782507024, 67.40753604604059, 62.53770543590316 
-176.95021740961602, 5.734289761475743, 20.986038067146783, -44.73633089688295, 67.85389958429951, 62.534159151109485 
-177.85840011678772, 5.488573292077405, 20.986148132846942, -45.05751151361218, 68.30154873578438, 62.530659490627315 
-178.76736676279222, 5.2470947751854515, 20.98625166816075, -45.37236207524834, 68.75044547081062, 62.52720806917726 
-179.67713504447644, 5.009918488692586, 20.986348881264806, -45.68051362409167, 69.20055117039176, 62.52380648769939 
179.41227920112308, 4.777107876068331, 20.986439982276316, -45.981562250841264, 69.65182655109258, 62.5204563321904 
178.50086199581233, 4.5487255208575155, 20.986525182894155, -46.27506499978162, 70.10423157934969, 62.51715917254399 
177.5886012177817, 4.324833120514069, 20.986604696039755, -46.56053518999917, 70.55772537350819, 62.51391656139563 
176.67548659759336, 4.105491459613165, 20.986678735498135, -46.83743705352616, 71.01226609148168, 62.5107300329728 
175.761509712552, 3.890760382487361, 20.986747515559756, -47.10517957172886, 71.46781080152208, 62.50760110195223 
174.84666397939625, 3.680698765334304, 20.986811250663475, -47.3631093672415, 71.92431533307274, 62.50453126232501 
173.9309446452523, 3.47536448784614, 20.986870155041178, -47.61050247916154, 72.38173410403999, 62.50152198627079 
173.01434877679074, 3.2748144044125658, 20.986924442364565, -47.84655481260308, 72.84001992002966, 62.49857472304272 
172.09687524753218, 3.0791043149517905, 20.986974325394485, -48.07037100816051, 73.29912374010809, 62.495690897863625 
171.17852472324978, 2.8882889354255514, 20.98702001563333, -48.280951419900575, 73.75899440241118, 62.49287191083529 
170.25929964541822, 2.702421868096132, 20.987061722980894, -48.47717681895653, 74.21957830136444, 62.490119135861505 
169.3392042126652, 2.521555571585269, 20.9870996553943, -48.65779034939141, 74.6808190062968, 62.48743391958643 
168.41824436018325, 2.3457413307963906, 20.987134018552233, -48.82137614810849, 75.14265680870366, 62.48481758034923 
167.49642773706475, 2.175029226763097, 20.98716501552403, -48.96633389370287, 75.6050281821652, 62.48227140715612 
166.5737636815281, 2.009468106488319, 20.987192846444106, -49.09084836019191, 76.06786513472397, 62.479796658671226 
165.65026319400724, 1.849105552839601, 20.987217708192063, -49.192852806899296, 76.53109442804902, 62.47739456222699 
164.7259389080825, 1.6939878545671574, 20.987239794078935, -49.269984716832816, 76.9946366305247, 62.4750663128556 
163.80080505923632, 1.5441599765121872, 20.987259293539985, -49.31953197721487, 77.45840496189098, 62.472813072342284 
162.8748774514236, 1.399665530073593, 20.98727639183443, -49.33836704219492, 77.92230387437283, 62.470635968301536 
161.94817342145114, 1.260546744001616, 20.987291269752607, -49.322865880167576, 78.38622729816073, 62.46853609327765 
161.02071180116934, 1.1268444355874143, 20.98730410333074, -49.26880751776461, 78.85005645591673, 62.46651450387009 
160.09251287748367, 0.9985979823174628, 20.987315063573924, -49.17124865229102, 79.31365711918629, 62.46457221988515 
159.16359835020137, 0.8758452940615818, 20.98732431618757, -49.024365975831614, 79.7768761355666, 62.462710223514385 
158.23399128773565, 0.7586227858629258, 20.98733202131765, -48.82125633943622, 80.23953699385451, 62.46092945854161 
157.30371608069603, 0.6469653513977968, 20.98733833330012, -48.55368139970878, 80.70143410719245, 62.459230829578104 
156.372798393401, 0.5409063371720632, 20.98734340041988, -48.21173852136106, 81.16232536940993, 62.45761520132814 
155.44126511335625, 0.44047751752003633, 20.98734736467959, -47.78343286397161, 81.6219223589815, 62.45608339788509 
154.50914429874845, 0.3457090704702626, 20.987350361578514, -47.25411590675296, 82.07987730004193, 62.454636202058786 
153.57646512401217, 0.25662955454102104, 20.987352519901872, -46.6057419558884, 82.53576549680864, 62.45327435473547 
152.6432578235335, 0.17326588652662786, 20.98735396152087, -45.81587478536328, 82.98906136780872, 62.45199855427045 
151.70955363356222, 0.09564332033342338, 20.987354801203708, -44.856349384866746, 83.4391053114814, 62.45080945591486 
150.7753847324095, 0.023785426922221086, 20.98735514643779, -43.69145660241618, 83.88505726592807, 62.449707671276364 
149.84078417901551, -0.04228592458875677, 20.98735509726338, -42.27547025954743, 84.3258307224507, 62.44869376781547 
148.90578584997778, -0.10255058460900791, 20.987354746118957, -40.54928143305563, 84.75999773124651, 62.44776826837691 
147.97042437513556, -0.15699013950051258, 20.98735417769843, -38.43586438279728, 85.18565059086721, 62.44693165075764 
147.03473507181388, -0.20558792669689147, 20.987353468820412, -35.83434197167369, 85.60019896707378, 62.44618434731144 
146.09875387783276, -0.2483290484750026, 20.98735268830977, -32.61273755655951, 86.00007241380499, 62.445526744590424 
145.16251728339535, -0.285200384340619, 20.9873518968915, -28.600581017025, 86.38029109540396, 62.444959183024686 
144.22606226197064, -0.3161906019935016, 20.987351147097222, -23.58546532139416, 86.73387543597487, 62.44448195663956 
143.2894262002925, -0.34129016684101765, 20.987350483184297, -17.324314449058676, 87.05112830338184, 62.44409531281107 
142.35264682759856, -0.360491350033446, 20.987349941067674, -9.591592096195802, 87.31903079244479, 62.443799452060574 
141.41576214423722, -0.37378823499822894, 20.987349548264667, -0.29428923729145906, 87.52145381395886, 62.44359452788766 
140.47881034977257, -0.3811767224546542, 20.987349323852637, 10.349698830613436, 87.6414232927882, 62.443480646642534 
139.5418297707193, -0.3826545338945736, 20.98734927843961, 21.690425734409473, 87.6661586153935, 62.443457867437225 
138.60485878804184, -0.3782212135194462, 20.987349414148028, 32.78949734854951, 87.59271647249741, 62.44352620209673 
137.66793576455186, -0.36787812862798364, 20.987349724611416, 42.813728670410995, 87.4295147208925, 62.44368561514879 
136.73109897233974, -0.35162846845340995, 20.987350194984238, 51.33205225562801, 87.19219660571018, 62.443936023853674 
135.7943865203749, -0.3294772414536101, 20.987350801964674, 58.30543627329811, 86.89777504412187, 62.44427729827295 
134.85783628240893, -0.3014312710619145, 20.98735151383049, 63.912508332073585, 86.5609462352253, 62.444709261377746 
133.92148582531522, -0.2674991899105793, 20.987352290487816, 68.39712144829902, 86.19301991241808, 62.445231689196056 
132.9853723379958, -0.2276914325434433, 20.987353083532856, 71.990056243947, 85.8022421654087, 62.44584431099909 
132.0495325609845, -0.1820202266383333, 20.987353836326392, 74.88287480602408, 85.39450872875044, 62.44654680952619 
131.1140027168725, -0.13049958276412038, 20.98735448408101, 77.22597281660406, 84.97403138814346, 62.44733882124855 
130.1788184416789, -0.07314528270125645, 20.98735495396094, 79.1348131692042, 84.54384602095678, 62.448219936670725 
129.24401471728515, -0.009974866358559778, 20.98735516519434, 80.69751420805645, 84.1061711845834, 62.44918970067025 
128.30962580504783, 0.058992382677192, 20.987355029197914, 81.98149276424867, 83.66265397508266, 62.45024761287463 
127.37568518069973, 0.13373545291866945, 20.987354449713692, 83.03867928605315, 83.2145374458555, 62.45139312807483 
126.44222547064402, 0.2142316220387993, 20.987353322957784, 83.9094326762297, 82.76277509015773, 62.452625656676055 
125.50927838974036, 0.30045647516809326, 20.98735153778087, 84.62542686424374, 82.30810989046978, 62.453944565183704 
124.57687468067675, 0.39238392437856817, 20.98734897584031, 85.21176897884276, 81.85112958212952, 62.455349176724994 
123.64504405501427, 0.4899862293014824, 20.987345511783595, 85.68855686334189, 81.3923058130956, 62.45683877160531 
122.71381513598568, 0.5932340188233604, 20.987341013442776, 86.07203093685246, 80.93202227605927, 62.45841258789869 
121.78321540312233, 0.7020963138026581, 20.98733534203994, 86.37543264998018, 80.47059519275633, 62.460069822071404 
120.8532711387768, 0.816540550746831, 20.987328352403008, 86.60964985560418, 80.00828842456393, 62.461809629638644 
119.92400737660225, 0.9365326063879674, 20.98731989319202, 86.78370641456354, 79.54532475778431, 62.46363112585271 
118.99544785204202, 1.0620368230933015, 20.987309807135297, 86.90513704084394, 79.08189443113017, 62.46553338642231 
118.06761495487625, 1.1930160350453676, 20.987297931275236, 86.98027687570665, 78.61816165066499, 62.46751544826237 
117.1405296838649, 1.329431595125563, 20.987284097223558, 87.01448714660629, 78.15426961891579, 62.469576310273055 
116.21421160352021, 1.4712434024335972, 20.9872681314255, 87.01233249806685, 77.69034445488411, 62.471714934147094 
115.28867880303339, 1.6184099303749087, 20.98724985543262, 86.97772146555627, 77.2264982775008, 62.47393024520486 
114.36394785737468, 1.7708882552472576, 20.987229086184016, 86.91401860537638, 76.76283165186464, 62.47622113325607 
113.44003379057835, 1.9286340852577661, 20.98720563629536, 86.82413465133148, 76.29943554558383, 62.47858645348691 
112.51695004121777, 2.091601789901295, 20.987179314355526, 86.71059950501717, 75.83639290517239, 62.48102502737174 
111.59470843006932, 2.259744429631514, 20.987149925230398, 86.57562171560589, 75.37377993533558, 62.483535643608484 
110.6733191299574, 2.4330137857562173, 20.987117270373336, 86.4211372511561, 74.91166714410188, 62.4861170590765 
109.75279063776713, 2.6113603904889824, 20.987081148142103, 86.24884972505075, 74.45012020205765, 62.488767999815614 
108.83312974860516, 2.7947335570902516, 20.98704135412167, 86.06026376016558, 73.98920065296393, 62.49148716202582 
107.91434153208417, 2.9830814100316125, 20.98699768145244, 85.85671280827418, 73.52896650477619, 62.49427321308583 
106.99642931070044, 3.176350915118416, 20.986949921163713, 85.6393824630943, 73.06947272381728, 62.49712479259 
106.07939464027055, 3.374487909506981, 20.98689786251161, 85.40933009054653, 72.61077165006215, 62.500040513401785 
105.16323729238704, 3.577437131554208, 20.986841293321277, 85.16750143332958, 72.1529133478004, 62.503018962723424 
104.24795523885018, 3.785142250438912, 20.98678000033279, 84.91474471711116, 71.69594590307962, 62.50605870317972 
103.33354463802809, 3.997545895496011, 20.986713769550345, 84.65182268379226, 71.23991567709665, 62.50915827391559 
102.41999982309494, 4.214589685206399, 20.986642386594273, 84.37942289693481, 70.78486752294828, 62.512316191705516 
101.50731329209327, 4.436214255787338, 20.986565637055385, 84.09816660066276, 70.33084497176395, 62.515530952074336 
100.59547569976364, 4.662359289330308, 20.986483306851216, 83.80861636245777, 69.8778903931401, 62.51880103042755 
99.68447585108353, 4.892963541435177, 20.986395182583717, 83.5112826894577, 69.42604513391363, 62.52212488319035 
98.77430069645399, 5.127964868291909, 20.986301051897854, 83.20662977497, 68.97534963860329, 62.52550094895407 
97.86493532847244, 5.367300253163094, 20.98620070384069, 82.89508050527246, 68.52584355427545, 62.52892764962881 
96.95636298022745, 5.610905832223124, 20.98609392922048, 82.57702083510006, 68.07756582212679, 62.532403391601015 
96.04856502505196, 5.85871691971176, 20.985980520965317, 82.25280362250754, 67.63055475769738, 62.535926566894815 
95.14152097766916, 6.11066803236269, 20.98586027448079, 81.92275199926414, 67.18484812131823, 62.53949555433612 
94.23520849666716, 6.366692913069477, 20.98573298800626, 81.58716234096335, 66.74048318014256, 62.543108720717754 
93.32960338823672, 6.626724553754323, 20.985598462969225, 81.24630689112695, 66.29749676289936, 62.546764421965214 
92.4246796111087, 6.890695217406708, 20.985456504337407, 80.90043608535885, 65.85592530833397, 62.55046100430122 
91.52040928262728, 7.158536459261998, 20.985306920967915, 80.54978061475268, 65.41580490815534, 62.55419680540793 
90.61676268589709, 7.43017914709218, 20.985149525953226, 80.19455326202694, 64.97717134518797, 62.55797015558648 
89.71370827794374, 7.705553480583027, 20.984984136963366, 79.8349505390548, 64.54006012732634, 62.56177937891121 
88.8112126988284, 7.984589009774825, 20.984810576583975, 79.47115415040827, 64.10450651780289, 62.56562279437921 
87.90924078166003, 8.267214652545437, 20.984628672649663, 79.10333230412067, 63.67054556221009, 62.56949871705247 
87.00775556345025, 8.553358711117394, 20.98443825857236, 78.73164088797648, 63.23821211265522, 62.57340545919257 
86.1067182967594, 8.842948887572252, 20.98423917366412, 78.35622452718027, 62.807540849376, 62.577341331386556 
85.20608846208377, 9.13591229835821, 20.984031263453975, 77.97721753716196, 62.37856630009981, 62.581304643662605 
84.3058237809389, 9.432175487778588, 20.98381437999849, 77.5947447834876, 61.95132285739371, 62.585293706595 
83.40588022959481, 9.73166444045136, 20.983588382185445, 77.20892245931269, 61.52584479421819, 62.589306832396886 
82.50621205342473, 10.03430459273141, 20.983353136030477, 76.8198587895, 61.10216627787218, 62.59334233600009 
81.60677178183086, 10.34002084308961, 20.983108514965984, 76.42765466939203, 60.680321382491954, 62.59739853612094 
80.70751024371526, 10.648737561444625, 20.982854400122235, 76.03240424525067, 60.26034410024605, 62.60147375631122 
79.80837658346844, 10.960378597444986, 20.982590680599962, 75.63419544253334, 59.84226835135175, 62.60556632599304 
78.90931827745096, 11.27486728770134, 20.98231725373443, 75.2331104474404, 59.426127993022384, 62.60967458147713 
78.01028115094971, 11.592126461969924, 20.982034025350305, 74.82922614653516, 59.011956827442106, 62.613796866963376 
77.11120939559295, 11.912078448290751, 20.98174091000714, 74.42261452868155, 58.59978860885275, 62.61793153552265 
76.21204558721497, 12.234645077085164, 20.981437831235173, 74.01334305306324, 58.18965704982788, 62.622076950059586 
75.31273070416393, 12.559747684219438, 20.981124721761002, 73.6014749866246, 57.78159582680003, 62.626231484255094 
74.41320414605336, 12.887307113042631, 20.98080152372289, 73.18706971390466, 57.37563858489945, 62.63039352348762 
73.51340375296152, 13.217243715408538, 20.98046818887537, 72.77018302191054, 56.971818942156226, 62.63456146573322 
72.61326582508839, 13.549477351693323, 20.980124678782996, 72.35086736239093, 56.570170493111334, 62.63873372244294 
71.71272514288601, 13.883927389821666, 20.979770965002682, 71.92917209362005, 56.17072681187749, 62.64290871939714 
70.81171498768256, 14.220512703316475, 20.979407029254734, 71.50514370357962, 55.773521454685564, 62.647084897536125 
69.91016716282647, 14.559151668388, 20.979032863581978, 71.07882601623139, 55.37858796194876, 62.6512607137664 
69.0080120153828, 14.899762160080545, 20.978648470497042, 70.65026038239857, 54.98595985987288, 62.65543464174199 
68.10517845841973, 15.24226154749595, 20.978253863117413, 70.21948585662126, 54.595670661638145, 62.65960517262022 
