# MEX_intpoint_lon [deg], MEX_intpoint_lat [deg], MEX_intpoint_angle [deg], TGO_intpoint_lon [deg], TGO_intpoint_lat [deg], TGO_intpoint_angle [deg] 
-138.38695493514794, 19.363698312548166, 21.154700778615947, -27.709611341262637, 48.2472963545589, 62.74760760455855 
-139.2975410326508, 18.995217155691776, 21.1552295760593, -28.112798484380786, 48.62328300974774, 62.74335339562007 
-140.20652170725074, 18.627688295130593, 21.155748476727993, -28.51312655070703, 49.002019195670265, 62.73907622394596 
-141.11398696017713, 18.2612021313931, 21.15625733447113, -28.91054417774732, 49.38346753484479, 62.73477742505796 
-142.02002555955104, 17.895848432329995, 21.156756015125115, -29.304997728803798, 49.76759055523838, 62.73045836319578 
-142.92472500895056, 17.531716348929777, 21.157244396529304, -29.69643113696174, 50.15435068739168, 62.726120430855154 
-143.82817151739897, 17.1688944304619, 21.15772236852711, -30.08478573883398, 50.54371026085364, 62.721765048290656 
-144.7304499706538, 16.807470638907304, 21.158189832952697, -30.470000097234443, 50.935631499887805, 62.7173936629844 
-145.6316439036833, 16.44753236263818, 21.158646703603303, -30.85200981187543, 51.33007651840924, 62.71300774907963 
-146.53183547422398, 16.089166429311234, 21.15909290619721, -31.230747317096352, 51.72700731410655, 62.708608806780504 
-147.43110543732132, 15.732459117940332, 21.15952837831753, -31.606141665537226, 52.12638576169895, 62.70419836171796 
-148.32953312076194, 15.37749617011699, 21.15995306934182, -31.978118296564418, 52.52817360527309, 62.69977796428189 
-149.2271964013147, 15.024362800348587, 21.160366940357775, -32.346598788139445, 52.93233244963901, 62.695349188920275 
-150.1241716817038, 14.673143705486039, 21.160769964065047, -32.71150059069234, 53.33882375063791, 62.69091363340562 
-151.02053386824505, 14.323923073214795, 21.16116212466337, -33.07273674141644, 53.74760880432715, 62.686472918068944 
-151.91635634908315, 13.976784589584092, 21.161543417727167, -33.43021555724221, 54.15864873496082, 62.682028685002216 
-152.8117109729747, 13.631811445551728, 21.161913850066863, -33.7838403045683, 54.571904481674174, 62.677582597229446 
-153.70666802856854, 13.2890863425225, 21.162273439577078, -34.13350884363034, 54.987336783771326, 62.673136337847176 
-154.6012962241409, 12.94869149686076, 21.162622215071902, -34.47911324516457, 55.40490616450397, 62.66869160913488 
-155.49566266775048, 12.610708643358423, 21.16296021610756, -34.82053937677662, 55.82457291321655, 62.6642501316361 
-156.38983284778362, 12.275219037641826, 21.16328749279264, -35.157666456146956, 56.24629706571933, 62.659813643210754 
-157.28387061386707, 11.942303457502023, 21.16360410558622, -35.49036656789361, 56.67003838273528, 62.65538389805957 
-158.17783815813024, 11.612042203134935, 21.163910125084147, -35.81850414056341, 57.09575632624856, 62.65096266572132 
-159.0717959968071, 11.28451509627899, 21.164205631793738, -36.14193537983035, 57.52341003356294, 62.646551730043605 
-159.96580295217112, 10.959801478239836, 21.16449071589727, -36.46050765353799, 57.95295828885574, 62.64215288812817 
-160.85991613480365, 10.63798020679303, 21.164765477004593, -36.77405882372481, 58.38435949198721, 62.63776794925133 
-161.75419092620206, 10.319129651957304, 21.165030023895046, -37.08241652021017, 58.81757162429715, 62.63339873376092 
-162.64868096173706, 10.003327690632814, 21.165284474249308, -37.38539734968328, 59.25255221108694, 62.62904707195007 
-163.543438113977, 9.690651700100192, 21.165528954371275, -37.682806033519334, 59.689258280448854, 62.624714802909224 
-164.43851247639853, 9.381178550378335, 21.165763598900508, -37.97443446673284, 60.12764631806181, 62.62040377335735 
-165.33395234751077, 9.074984595440288, 21.16598855051552, -38.260060689553534, 60.56767221752523, 62.616115836453226 
-166.2298042154225, 8.772145663288795, 21.16620395962847, -38.5394477620597, 61.00929122574642, 62.611852850587844 
-167.12611274288818, 8.47273704489461, 21.166409984071468, -38.81234253110676, 61.45245788283611, 62.6076166781593 
-168.02292075287187, 8.176833482003008, 21.16660678877503, -39.07847427742439, 61.89712595589269, 62.60340918433105 
-168.92026921467192, 7.884509153815692, 21.166794545439124, -39.3375532291963, 62.343248365974745, 62.599232235774636 
-169.81819723065468, 7.595837662557442, 21.166973432197164, -39.58926892665266, 62.79077710746543, 62.595087699398285 
-170.7167420236476, 7.310892017938939, 21.167143633273454, -39.83328842016115, 63.23966315892358, 62.59097744106253 
-171.61593892504652, 7.02974462052967, 21.167305338634566, -40.06925428195459, 63.689856384389124, 62.586903324283725 
-172.5158213636943, 6.752467244056659, 21.16745874363499, -40.2967824089346, 64.1413054239651, 62.58286720892733 
-173.41642085559263, 6.479131016647228, 21.16760404865768, -40.5154595908817, 64.59395757232829, 62.5788709498917 
-174.3177669945091, 6.209806401036739, 21.16774145874984, -40.72484081481428, 65.04775864362404, 62.57491639578392 
-175.2198874435463, 5.9445631737639, 21.167871183254547, -40.92444627209341, 65.50265282097068, 62.571005387589025 
-176.12280792774047, 5.683470403379482, 21.16799343543857, -41.11375803006984, 65.95858248853213, 62.56713975733364 
-177.0265522277599, 5.426596427696222, 21.168108432116988, -41.29221632450333, 66.41548804380315, 62.56332132674594 
-177.9311421747742, 5.174008830110538, 21.168216393275035, -41.45921542251825, 66.87330768738515, 62.559551905912585 
-178.8365976465671, 4.925774415028994, 21.16831754168772, -41.614098998337155, 67.3319771870984, 62.555833291934704 
-179.74293656496639, 4.6819591824353015, 21.168412102537623, -41.7561549552682, 67.79142961276803, 62.55216726758374 
179.34982510533536, 4.442628301636049, 21.168500303031514, -41.88460961719303, 68.25159503742091, 62.54855559995909 
178.44167335649448, 4.207846084225876, 21.168582372016186, -41.99862120084842, 68.71240019991944, 62.54500003914833 
177.53259613569168, 3.977675956315706, 21.16865853959405, -42.09727246620763, 69.17376812321397, 62.54150231689194 
176.6225833416946, 3.7521804300697896, 21.168729036739006, -42.17956242588432, 69.63561768139236, 62.53806414525384 
175.71162681973615, 3.53142107460034, 21.16879409491306, -42.244396975271876, 70.09786310750656, 62.53468721529896 
174.79972035463774, 3.3154584862705208, 21.16885394568421, -42.290578282594495, 70.56041343272472, 62.531373195779594 
173.88685966210787, 3.104352258459509, 21.168908820346168, -42.31679275159607, 71.02317184563906, 62.52812373183142 
172.97304237815035, 2.8981609508453094, 21.168958949540237, -42.32159733855243, 71.48603495849738, 62.524940443681494 
172.05826804651684, 2.696942058263662, 21.16900456288009, -42.3034039688874, 71.94889196463848, 62.521824925368584 
171.14253810414422, 2.5007519792033714, 21.16904588857973, -42.26046175603183, 72.41162366841048, 62.518778743478045 
170.22585586451802, 2.3096459840005696, 21.16908315308523, -42.190836675328065, 72.87410136521795, 62.515803435892565 
169.30822649890916, 2.123678182796565, 21.16911658071069, -42.09238828773694, 73.33618554493736, 62.512900510559376 
168.38965701543478, 1.9429014933255855, 21.169146393278965, -41.96274304083504, 73.79772438658932, 62.51007144427672 
167.47015623589854, 1.7673676086006431, 21.169172809767524, -41.79926359720062, 74.25855200564502, 62.50731768149946 
166.54973477037115, 1.5971269645672757, 21.16919604596001, -41.599013552182434, 74.71848640741518, 62.50464063316636 
165.62840498947733, 1.4322287077962104, 21.169216314103867, -41.358716804263715, 75.17732709030885, 62.502041675549634 
164.70618099436115, 1.2727206632874617, 21.169233822574604, -41.074710732961705, 75.63485223098083, 62.499522149128396 
163.78307858430824, 1.1186493024591748, 21.169248775546976, -40.74289222462624, 76.09081536906947, 62.49708335748736 
162.85911522200948, 0.9700597113955343, 21.169261372673724, -40.35865547213798, 76.54494149185156, 62.4947265662418 
161.93430999645759, 0.8269955594284866, 21.16927180877205, -39.91682037229903, 76.99692239815232, 62.49245300199038 
161.0086835834755, 0.6894990681285766, 21.169280273518492, -39.411550275270166, 77.44641119566664, 62.490263851296696 
160.0822582038824, 0.557610980780261, 21.16928695115239, -38.83625783801485, 77.89301575596284, 62.48816025970095 
159.15505757931072, 0.4313705324169453, 21.169292020188486, -38.18349785386744, 78.33629091654774, 62.48614333076303 
158.22710688569535, 0.31081542049062855, 21.169295653138946, -37.444846261142985, 78.775729179652, 62.48421412513773 
157.29843270446395, 0.19598177625051, 21.16929801624519, -36.610765212499174, 79.21074961398323, 62.48237365968372 
156.3690629714651, 0.08690413690392196, 21.169299269219948, -35.670455324020125, 79.64068462148622, 62.48062290660677 
155.43902692367897, -0.016384581368192052, 21.169299564999807, -34.611698335100705, 80.06476419212673, 62.478962792638725 
154.50835504376363, -0.11385310947027033, 21.169299049508542, -33.42069686156915, 80.48209724706614, 62.477394198253066 
153.57707900249667, -0.20547185045664906, 21.169297861431705, -32.081923375142686, 80.89164968402677, 62.47591795691783 
152.64523159918147, -0.2912129035342896, 21.169296132002586, -30.577998886908784, 81.29221882126335, 62.47453485438695 
151.71284670009368, -0.3710500869387395, 21.169293984799964, -28.889634173857992, 81.68240414163802, 62.473245628030945 
150.7799591750517, -0.44495895962099485, 21.169291535557818, -26.995683983997374, 82.06057464761196, 62.47205096620746 
149.84660483220193, -0.5129168416854126, 21.169288891987314, -24.873388385700313, 82.42483386953995, 62.470951507672936 
148.91282035111703, -0.5749028335220328, 21.169286153611306, -22.498904902071253, 82.77298477894587, 62.46994784103546 
147.9786432143116, -0.6308978335797834, 21.16928341161152, -19.848266720177104, 83.10249871930071, 62.46904050425015 
147.04411163728662, -0.68088455473064, 21.169280748688642, -16.89892618249818, 83.41049510655199, 62.468229984157105 
146.1092644972193, -0.7248475391782454, 21.169278238935544, -13.632038573350775, 83.69374200239756, 62.46751671606289 
145.17414126042186, -0.7627731718687457, 21.16927594772372, -10.035575036773633, 83.94869119512991, 62.466901083365904 
144.23878190869593, -0.7946496923653478, 21.169273931603215, -6.108181871641977, 84.171563784531, 62.46638341722611 
143.30322686471584, -0.8204672051524866, 21.16927223821603, -1.8633944113953758, 84.35850103539157, 62.465963996279314 
142.36751691657693, -0.8402176883399326, 21.169270906223254, 2.6666070959805213, 84.50578729697918, 62.465643046397 
141.43169314164868, -0.8538950007415972, 21.169269965245864, 7.428902241757564, 84.61013485532062, 62.465420740491155 
140.49579682987613, -0.8614948873085545, 21.169269435819515, 12.350684762691415, 84.66899639388163, 62.465297198365 
139.55986940667435, -0.8630149829003835, 21.169269329363072, 17.343854535670015, 84.68084756847325, 62.46527248660945 
138.62395235556355, -0.8584548143839904, 21.169269648161187, 22.313018159730145, 84.64537343293581, 62.46534661854556 
137.68808714069243, -0.84781580105365, 21.169270385360786, 27.165266170770835, 84.56350859605224, 62.465519554213074 
136.75231512939888, -0.8311012533711233, 21.169271524981557, 31.819334570584793, 84.43731969844785, 62.46579120040479 
135.81667751495635, -0.8083163700295123, 21.169273041940393, 36.21202749135054, 84.26976300039458, 62.46616141074733 
134.8812152396535, -0.7794682333493935, 21.16927490208973, 40.300899877770796, 84.06437862724627, 62.466629985827424 
133.94596891835334, -0.7445658030206395, 21.169277062269764, 44.06349111314848, 83.82498600571192, 62.46719667336418 
133.01097876267647, -0.7036199082080913, 21.169279470374512, 47.49423280629059, 83.5554273077199, 62.46786116842686 
132.07628450594925, -0.6566432380440083, 21.16928206543153, 50.60033457163122, 83.25938057330288, 62.468623113697774 
131.1419253290562, -0.6036503305346699, 21.169284777695275, 53.397673816913084, 82.94024303365609, 62.46948209978038 
130.20793978733002, -0.544657559913202, 21.169287528753948, 55.907283328124436, 82.60107282064995, 62.470437665551785 
129.2743657386104, -0.47968312247474104, 21.169290231649665, 58.1526562836099, 82.2445730421741, 62.4714892985593 
128.34124027259617, -0.40874702093452253, 21.16929279101185, 60.15784979734375, 81.87310313551718, 62.472636435460856 
127.40859964161103, -0.33187104735315753, 21.169295103203588, 61.94625469492388, 81.48870559162924, 62.47387846250852 
126.47647919289699, -0.24907876467741225, 21.16929705648082, 63.53986910620098, 81.09313969321607, 62.47521471607422 
125.54491330254359, -0.16039548694817957, 21.169298531164145, 64.95892668125126, 80.68791693447615, 62.47664448321775 
124.61393531115381, -0.06584825823081997, 21.169299399823007, 66.22175981145821, 80.27433503210106, 62.4781670022957 
123.68357746134176, 0.03453416967388901, 21.169299527471946, 67.34480955236322, 79.85350895111058, 62.47978146361094 
122.7538708371489, 0.1407213606770954, 21.16929877177882, 68.34272073693643, 79.42639831812085, 62.4814870101017 
121.8248453054591, 0.252681218943717, 21.16929698328457, 69.22848136785012, 78.99383114787767, 62.48328273806959 
120.89652945948455, 0.3703800144627422, 21.169294005634274, 70.01358020936549, 78.5565241037467, 62.485167697945414 
119.96895056438707, 0.4937824095777607, 21.169289675819265, 70.70816670066459, 78.11509964846601, 62.48714089509205 
119.04213450509151, 0.6228514864076741, 21.169283824429844, 71.3212040829095, 77.67010048427251, 62.489201290643564 
118.11610573633978, 0.7575487750860634, 21.16927627591843, 71.86061098678813, 77.22200167374051, 62.49134780237909 
117.19088723502664, 0.8978342827462819, 21.16926684887262, 72.33338943988473, 76.77122079999828, 62.493579305630895 
116.26650045484962, 1.0436665231784763, 21.169255356297985, 72.74573888018422, 76.31812648236081, 62.495894634225536 
115.34296528329834, 1.1950025470837393, 21.16924160591005, 73.1031566879996, 75.86304551909122, 62.49829258145638 
114.42030000100064, 1.3517979728505434, 21.169225400435145, 73.41052623232443, 75.40626888720979, 62.500771901087376 
113.49852124343461, 1.5140070177778049, 21.16920653791986, 73.67219363946853, 74.9480567918956, 62.50333130838584 
112.57764396500944, 1.681582529669486, 21.169184812048407, 73.8920345420599, 74.48864292565204, 62.5059694811838 
111.6576814055099, 1.854476018725539, 21.169160012467763, 74.07351202518424, 74.02823806993129, 62.50868506096632 
110.7386450588923, 2.032637689654672, 21.169131925120002, 74.21972689732158, 73.56703314889634, 62.51147665398558 
109.82054464441387, 2.2160164739350754, 21.169100332581383, 74.33346130351279, 73.1052018258908, 62.51434283239956 
108.90338808007037, 2.404560062150197, 21.169065014407817, 74.41721658262522, 72.64290271740717, 62.51728213543371 
107.98718145831108, 2.598214936327746, 21.16902574748623, 74.47324615859438, 72.18028128636115, 62.52029307056473 
107.07192902399447, 2.796926402211524, 21.168982306391303, 74.5035841517428, 71.71747146581536, 62.52337411472477 
106.157633154543, 3.0006386213970275, 21.16893446374724, 74.51007030277346, 71.2545970555447, 62.526523715524675 
105.24429434224957, 3.209294643263603, 21.16888199059391, 74.49437171933181, 70.79177292664988, 62.52974029249513 
104.33191117868498, 3.4228364366375597, 21.16882465675712, 74.45800188280107, 70.32910606352526, 62.533022238344195 
103.42048034115005, 3.6412049211227755, 21.16876223122225, 74.40233729046025, 69.86669646763079, 62.53636792022972 
102.50999658111405, 3.864339998037242, 21.168694482511036, 74.32863205432176, 69.40463794351952, 62.53977568104545 
101.60045271457618, 4.092180580896223, 21.16862117906083, 74.23803073185186, 68.94301878426927, 62.54324384071915 
100.69183961428497, 4.324664625385128, 21.16854208960581, 74.1315796243676, 68.48192237073637, 62.54677069752156 
99.78414620374782, 4.561729158767163, 21.16845698355985, 74.0102367452846, 68.02142769678503, 62.550354529384755 
98.87735945296043, 4.803310308673784, 21.16836563140029, 73.87488063173546, 67.56160983076308, 62.55399359522805 
97.97146437578495, 5.049343331227902, 21.16826780505232, 73.72631814866372, 67.10254032192861, 62.557686136290826 
97.06644402890356, 5.2997626384528305, 21.16816327827326, 73.56529141369221, 66.64428755922071, 62.56143037746997 
96.16227951227445, 5.554501824922013, 21.168051827036454, 73.39248395332775, 66.18691708867334, 62.56522452866123 
95.25894997101562, 5.813493693607709, 21.16793322991413, 73.20852618592568, 65.73049189484918, 62.56906678610269 
94.35643259864283, 6.076670280888781, 21.167807268458695, 73.01400031391195, 65.2750726508976, 62.572955333718944 
93.45470264158756, 6.34396288068097, 21.167673727582127, 72.80944469670219, 64.8207179411866, 62.576888344464855 
92.55373340492228, 6.615302067655005, 21.16753239593275, 72.59535776629153, 64.3674844599066, 62.580863981667314 
91.65349625922082, 6.890617719510967, 21.16738306626915, 72.37220153936883, 63.91542718857568, 62.58488040036351 
90.75396064848296, 7.169839038279649, 21.167225535830433, 72.14040477283685, 63.46459955497721, 62.5889357486348 
89.85509409905481, 7.452894570624007, 21.167059606702637, 71.90036580362143, 63.01505357572286, 62.5930281689342 
88.95686222947744, 7.739712227116696, 21.16688508618062, 71.65245510848484, 62.56683998434315, 62.59715579940682 
88.0592287611995, 8.03021930047167, 21.166701787125, 71.39701761509815, 62.1200083465612, 62.60131677520146 
87.16215553009151, 8.324342482710607, 21.166509528313686, 71.13437479177136, 61.674607164191535, 62.60550922977248 
86.26560249870279, 8.62200788124681, 21.166308134787577, 70.86482653990169, 61.2306839689244, 62.60973129617022 
85.36952776920462, 8.923141033872087, 21.166097438189873, 70.58865291030334, 60.78828540709719, 62.613981108319024 
84.47388759696727, 9.227666922633734, 21.16587727709858, 70.30611566206659, 60.34745731642019, 62.618256802282026 
83.57863640472121, 9.535509986591407, 21.16564749735186, 70.01745968040268, 59.90824479550473, 62.6225565175104 
82.68372679725742, 9.846594133445496, 21.165407952365676, 69.72291426802254, 59.47069226694122, 62.626878398077174 
81.78910957662552, 10.16084275003067, 21.165158503443344, 69.42269432292962, 59.03484353458514, 62.63122059389375 
80.89473375779198, 10.478178711670521, 21.16489902007663, 69.1170014140483, 58.600741835632114, 62.635581261907994 
80.00054658472641, 10.798524390390718, 21.164629380237873, 68.80602476483271, 58.16842988799635, 62.63995856728332 
79.10649354688691, 11.121801661990505, 21.164349470662916, 68.48994215387792, 57.73794993344764, 62.644350684557104 
78.21251839608168, 11.447931911973535, 21.16405918712425, 68.16892074057215, 57.30934377691083, 62.6487557987779 
77.31856316368783, 11.776836040341637, 21.163758434694238, 67.84311782295924, 56.882652822286644, 62.653172106620204 
76.42456817821437, 12.108434465255886, 21.16344712799782, 67.51268153421738, 56.45791810511324, 62.65759781747601 
75.53047208320066, 12.442647125572012, 21.16312519145454, 67.17775148348399, 56.03518032235268, 62.66203115452181 
74.6362118554478, 12.779393482257907, 21.162792559509505, 66.83845934616028, 55.6144798595566, 62.66647035576085 
73.74172282358556, 13.118592518703315, 21.162449176852874, 66.49492940830001, 55.19585681563737, 62.67091367503911 
72.84693868698297, 13.46016273993303, 21.162094998627776, 66.14727906921776, 54.77935102544765, 62.675359383034724 
71.95179153501695, 13.80402217073647, 21.161729990626093, 65.7956193060367, 54.36500208035023, 62.67980576821943 
71.05621186671887, 14.150088352728266, 21.161354129472095, 65.44005510352423, 53.95284934694048, 62.68425113779225 
70.16012861082542, 14.498278340355732, 21.160967402793478, 65.08068585223545, 53.54293198406817, 62.688693818583495 
69.26346914626588, 14.84850869587107, 21.160569809379624, 64.71760571768918, 53.13528895828935, 62.693132157929654 
68.36615932312503, 15.20069548328705, 21.160161359326974, 64.35090398303983, 52.729959057867134, 62.6975645245176 
