# MEX_intpoint_lon [deg], MEX_intpoint_lat [deg], MEX_intpoint_angle [deg], TGO_intpoint_lon [deg], TGO_intpoint_lat [deg], TGO_intpoint_angle [deg] 
-139.2381502417568, 19.572981983746818, 21.71942721597332, -27.489767161368576, 41.566562949705016, 62.88747224399653 
-140.13062851772403, 19.17345839336861, 21.720022223104746, -27.76865451932727, 41.97484552251258, 62.88280992529231 
-141.02148164142721, 18.775053705518477, 21.720605300600575, -28.042514964472943, 42.38568802907263, 62.878112420822305 
-141.91081249203546, 18.377861678429234, 21.721176285231014, -28.311246187503546, 42.79903545424804, 62.87338120633965 
-142.798722337178, 17.981975410986127, 21.721735028219744, -28.57474179319816, 43.21483228106166, 62.86861780111375 
-143.6853108115294, 17.58748736602877, 21.722281395258904, -28.832891070411392, 43.63302246222227, 62.86382376740376 
-144.5706758964744, 17.194489392644794, 21.72281526650678, -29.08557874984259, 44.05354938938448, 62.859000709880036 
-145.45491390070595, 16.803072747420394, 21.72333653656795, -29.332684748811374, 44.47635586001076, 62.85415027499395 
-146.33811944162386, 16.413328114614565, 21.723845114456136, -29.574083902220636, 44.901384041694776, 62.84927415029616 
-147.22038542740913, 16.025345625226038, 21.72434092353989, -29.809645678832542, 45.32857543379271, 62.84437406370397 
-148.10180303966186, 15.639214874923365, 21.724823901471048, -30.03923388192666, 45.75787082619722, 62.83945178271774 
-148.9824617164988, 15.255024940810774, 21.725294000096188, -30.262706333347545, 46.189210255075565, 62.83450911358715 
-149.86244913601698, 14.872864397003653, 21.72575118535129, -30.479914539884582, 46.622532955377785, 62.82954790042747 
-150.7418512000393, 14.49282132898885, 21.726195437139708, -30.690703340859077, 47.05777730990623, 62.82457002428686 
-151.6207520180664, 14.114983346747032, 21.72662674919361, -30.894910535721536, 47.49488079471934, 62.81957740216449 
-152.49923389136953, 13.73943759661484, 21.727045128919148, -31.092366490386404, 47.93377992062487, 62.81457198598123 
-153.3773772971648, 13.36627077186672, 21.72745059722562, -31.282893720952725, 48.374410170496446, 62.80955576150263 
-154.25526087282148, 12.995569121996734, 21.72784318833882, -31.466306453376244, 48.81670593212634, 62.80453074721528 
-155.13296140006108, 12.627418460682826, 21.72822294959882, -31.6424101575724, 49.26060042630269, 62.79949899315769 
-156.01055378911528, 12.261904172416262, 21.72858994124253, -31.811001054340412, 49.70602562977398, 62.79446257970618 
-156.88811106281602, 11.899111217781122, 21.728944236171348, -31.971865593406683, 50.152912192735144, 62.78942361631679 
-157.76570434060028, 11.539124137369207, 21.72928591970416, -32.1247799007916, 50.60118935043944, 62.784384240224234 
-158.6434028224178, 11.182027054317674, 21.72961508931606, -32.26950919360806, 51.05078482850725, 62.77934661509888 
-159.52127377253925, 10.827903675457295, 21.729931854363198, -32.405807160303965, 51.50162474146704, 62.77431292966302 
-160.39938250326696, 10.476837291061345, 21.730236335794043, -32.5334153042652, 51.953633484025204, 62.7692853962671 
-161.27779235855897, 10.128910773185963, 21.730528665847494, -32.65206224860285, 52.40673361451955, 62.764266249427955 
-162.15656469758292, 9.784206572594396, 21.730808987738296, -32.76146299985904, 52.860845729966265, 62.75925774432921 
-163.0357588782231, 9.442806714259403, 21.731077455330066, -32.86131816828366, 53.31588833206072, 62.75426215528611 
-163.9154322405702, 9.104792791439218, 21.731334232796492, -32.95131314226211, 53.771777683440924, 62.74928177417545 
-164.79564009042903, 8.770245958324546, 21.731579494271077, -33.031117214414905, 54.22842765346459, 62.74431890883248 
-165.67643568288682, 8.439246921255489, 21.731813423485917, -33.10038265685039, 54.68574955269088, 62.73937588141576 
-166.5578702059883, 8.111875928509653, 21.73203621339996, -33.158743743034215, 55.14365195519204, 62.73445502674217 
-167.43999276457183, 7.788212758663959, 21.73224806581737, -33.205815713755136, 55.602040507750765, 62.72955869059248 
-168.3228503643242, 7.46833670753548, 21.73244919099628, -33.24119368471956, 56.06081772492409, 62.7246892279905 
-169.20648789611838, 7.152326573708266, 21.732639807248606, -33.26445149341225, 56.519882768876215, 62.71984900145614 
-170.09094812070236, 6.840260642655523, 21.732820140531516, -33.27514048302568, 56.97913121279841, 62.715040379234885 
-170.97627165381363, 6.532216669469023, 21.73299042403083, -33.27278822150433, 57.43845478664642, 62.71026573350507 
-171.86249695179578, 6.228271860209964, 21.733150897737143, -33.256897154087774, 57.89774110383316, 62.705527438564765 
-172.7496602978008, 5.9285028518981155, 21.73330180801516, -33.2269431881911, 58.3568733674195, 62.700827869000165 
-173.637795788663, 5.6329856911586855, 21.733443407166753, -33.182374210057525, 58.815730054246934, 62.69616939783703 
-174.5269353225341, 5.341795811549409, 21.73357595298832, -33.122608533386874, 59.274184575356294, 62.69155439467757 
-175.4171085873735, 5.055008009592823, 21.733699708323194, -33.047033281120214, 59.73210491093732, 62.68698522382414 
-176.30834305038965, 4.77269641954207, 21.733814940609335, -32.95500270279032, 60.1893532179551, 62.68246424239202 
-177.2006639485317, 4.494934486911372, 21.733921921423313, -32.84583643137567, 60.64578540850771, 62.67799379841315 
-178.0940942801333, 4.221794940805512, 21.734020926020875, -32.71881768548707, 61.101250696884655, 62.673576228932816 
-178.98865479781097, 3.953349765085945, 21.73411223287483, -32.57319142503356, 61.55559111322409, 62.66921385810132 
-179.8843640027228, 3.689670168414332, 21.734196123210783, -32.40816247134337, 62.00864098161514, 62.664908995262756 
179.2187618597076, 3.4308265532177, 21.734272880541507, -32.22289360614458, 62.46022636046464, 62.66066393304272 
178.32070880249444, 3.1768884836226032, 21.73434279020021, -32.01650366794698, 62.910164442957345, 62.65648094543751 
177.42146509811494, 2.9279246524093625, 21.73440613887377, -31.788065669331743, 63.35826291549329, 62.65236228590629 
176.52102127774938, 2.68400284704046, 21.73446321413609, -31.536604964582253, 63.80431927210269, 62.648310185469114 
175.61937012863146, 2.445189914820913, 21.734514303982507, -31.261097504132707, 64.2481200830314, 62.64432685081209 
174.71650668940438, 2.2115517272515532, 21.7345596963658, -30.96046822062903, 64.68944021598125, 62.640414462402454 
173.8124282433824, 1.983153143639706, 21.734599678734224, -30.633589601173938, 65.12804200890328, 62.636575172615714 
172.90713430961682, 1.7600579740347466, 21.73463453757244, -30.279280511739252, 65.5636743938076, 62.63281110387635 
172.00062663167196, 1.5423289415596069, 21.734664557945724, -29.896305352966426, 65.99607197180669, 62.629124346815104 
171.0929091640184, 1.3300276442121224, 21.73469002304824, -29.483373641806974, 66.42495404059015, 62.625516958444315 
170.18398805595487, 1.1232145162131866, 21.734711213755787, -29.039140130828876, 66.85002357678528, 62.62199096035385 
169.27387163297672, 0.9219487889816792, 21.734728408183734, -28.562205596628676, 67.27096617724506, 62.6185483369295 
168.36257037551297, 0.7262884518188445, 21.734741881250685, -28.051118450659533, 67.68744896528085, 62.615191033596226 
167.45009689496013, 0.5362902123871681, 21.734751904248444, -27.50437734980902, 68.09911947029265, 62.6119209550882 
166.5364659069485, 0.352009457071494, 21.734758744418848, -26.92043500995884, 68.50560449221112, 62.60873996374753 
165.62169420178273, 0.17350021131202814, 21.734762664538042, -26.297703453011017, 68.9065089657305, 62.60564987785427 
164.70580061200675, 0.0008151000009393222, 21.73476392250866, -25.63456094562517, 69.30141484354615, 62.60265246998917 
163.78880597705125, -0.16599469196399255, 21.73476277096061, -24.929360914906976, 69.68988002278174, 62.599749465431586 
162.8707331049309, -0.3268794588739598, 21.734759456860857, -24.18044315070838, 70.07143734453692, 62.596942540594256 
161.95160673096672, -0.4817910130559397, 21.734754221132697, -23.38614762357316, 70.44559370302831, 62.59423332149716 
161.03145347351938, -0.6306827232749709, 21.73474729828517, -22.544831258431188, 70.81182930809656, 62.591623382282044 
160.11030178672937, -0.773509552594543, 21.73473891605299, -21.65488800277009, 71.16959715281784, 62.58911424376981 
159.188181910269, -0.9102280955976191, 21.734729295047426, -20.714772509103348, 71.51832274639798, 62.586707372062236 
158.26512581612306, -1.0407966148709684, 21.734718648418763, -19.723027709101824, 71.85740418113778, 62.58440417719003 
157.34116715242496, -1.1651750766558724, 21.734707181530595, -18.678316483977873, 72.18621261058219, 62.582206011809255 
156.41634118438606, -1.2833251855693544, 21.734695091646554, -17.579457525406536, 72.5040932233736, 62.58011416994655 
155.49068473236775, -1.3952104183010663, 21.734682567629708, -16.425465326413327, 72.810366802989, 62.578129885796635 
154.5642361071557, -1.5007960561928484, 21.73466978965522, -15.21559403634319, 73.10433196641038, 62.576254332572 
153.63703504250773, -1.600049216609721, 21.73465692893649, -13.949384654737065, 73.38526817362255, 62.57448862140704 
152.70912262505755, -1.6929388830136936, 21.734644147465225, -12.62671472622273, 73.65243959326384, 62.57283380031803 
151.7805412216671, -1.779435933654299, 21.734631597765794, -11.247849338888694, 73.90509989633588, 62.57129085322009 
150.85133440433142, -1.859513168793026, 21.734619422664064, -9.813491836523115, 74.14249802825347, 62.56986069900252 
149.92154687274981, -1.9331453363823388, 21.73460775507126, -8.324832254686388, 74.3638849786433, 62.5685441906638 
148.99122437468742, -2.0003091561236483, 21.734596717782857, -6.783591116515231, 74.56852152769304, 62.567342114507134 
148.0604136242608, -2.0609833418330368, 21.734586423293006, -5.192055921113728, 74.7556868978882, 62.566255189397886 
147.12916221829076, -2.1151486220478075, 21.73457697362462, -3.553107477498656, 74.924688182174, 62.56528406608397 
146.19751855087281, -2.16278775881197, 21.734568460175307, -1.8702332347900088, 75.07487035682578, 62.56442932657926 
145.26553172632558, -2.2038855645837674, 21.734560963579536, -0.14752498380360815, 75.20562662392119, 62.563691483612175 
144.33325147068342, -2.238428917213826, 21.73455455358697, 1.6103412094423892, 75.31640876987555, 62.56307098013906 
143.40072804190663, -2.2664067729480983, 21.734549288957382, 3.3981442225973426, 75.40673717948833, 62.5625681889235 
142.46801213898848, -2.2878101774156994, 21.734545217372034, 5.2101766323653225, 75.47621011594569, 62.56218341218203 
141.53515481014364, -2.3026322745677392, 21.734542375361904, 7.040322208709198, 75.52451187204284, 62.5619168812968 
140.6022073602662, -2.3108683135395527, 21.734540788252637, 8.882150086355853, 75.55141942050442, 62.56176875659529 
139.66922125784953, -2.31251565341501, 21.734540470126394, 10.729022332890517, 75.55680724292806, 62.561739127197846 
138.7362480415625, -2.307573765878198, 21.73454142380068, 12.574210594877432, 75.5406500954399, 62.56182801093281 
137.80333922667808, -2.296044235744146, 21.73454364082406, 14.411016772497565, 75.50302356910056, 62.56203535431945 
136.8705462115511, -2.2779307593670333, 21.734547101488925, 16.232892341965535, 75.44410241599626, 62.562361032619044 
135.93792018434175, -2.2532391409307095, 21.734551774861156, 18.033551056631254, 75.36415672753297, 62.56280484995339 
135.00551203018065, -2.2219772866332077, 21.734557618826674, 19.80707029756556, 75.26354615907319, 62.56336653949152 
134.07337223896798, -2.1841551967831276, 21.734564580154952, 21.54797724295174, 75.14271248520436, 62.56404576370318 
133.141550813998, -2.1397849558324715, 21.73457259457916, 23.25131717104737, 75.00217083551657, 62.564842114680026 
132.21009718159488, -2.0888807203766295, 21.734581586893057, 24.91270246990739, 74.84249999794355, 62.56575511452293 
131.27906010194215, -2.0314587051584647, 21.73459147106438, 26.52834216434855, 74.66433218509344, 62.566784215795785 
130.34848758128183, -1.9675371671194075, 21.734602150364623, 28.09505287194889, 74.46834264126805, 62.56792880204476 
129.41842678565354, -1.8971363875461678, 21.734613517514994, 29.6102529830187, 74.25523942906209, 62.569188188382164 
128.48892395633678, -1.820278652367271, 21.73462545484846, 31.07194248058525, 74.02575368087544, 62.57056162213482 
127.56002432715147, -1.7369882306588755, 21.7346378344875, 32.47867116841681, 73.78063053899373, 62.572048283555105 
126.6317720437645, -1.6472913514242895, 21.734650518537485, 33.82949818075951, 73.52062094419449, 62.57364728659483 
125.70421008513993, -1.5512161787162861, 21.734663359295322, 35.123945549697304, 73.24647437210834, 62.57535767973989 
124.77738018726205, -1.4487927851756885, 21.73467619947318, 36.36194835776697, 72.95893256241146, 62.57717844690532 
123.85132276925044, -1.3400531240637314, 21.73468887243689, 37.543803658764475, 72.6587242405274, 62.57910850838934 
122.9260768619757, -1.22503099986933, 21.7347012024588, 38.67011995744419, 72.34656079579004, 62.5811467218849 
122.00168003927418, -1.1037620375757493, 21.734713004984712, 39.74176863889469, 72.02313285387362, 62.583291883548064 
121.07816835184974, -0.9762836506741074, 21.73472408691452, 40.75983836013449, 71.68910766392872, 62.58554272912102 
120.1555762639384, -0.842635008013574, 21.734734246896245, 41.725593079025245, 71.34512721104744, 62.58789793510883 
119.23393659280248, -0.7028569995806129, 21.734743275632997, 42.64043410920308, 70.9918069609989, 62.59035612000815 
118.31328045110773, -0.5569922013010562, 21.734750956202518, 43.505866357654654, 70.62973514519902, 62.59291584558671 
117.39363719222774, -0.40508483896053965, 21.734757064388912, 44.323468722103534, 70.25947249828553, 62.59557561821129 
116.47503435850761, -0.24718075133967346, 21.734761369025957, 45.09486849362682, 69.88155236732017, 62.59833389022292 
115.5574976325086, -0.08332735266114843, 21.734763632351804, 45.82171951928762, 69.49648111959691, 62.60118906135773 
114.64105079124485, 0.0864264055537727, 21.734763610374358, 46.505683822838314, 69.10473878456922, 62.60413948021109 
113.72571566341234, 0.26203007312195126, 21.734761053246995, 47.14841635167439, 68.70677987398172, 62.60718344574361 
112.81151208960122, 0.44343174023112436, 21.73475570565408, 47.75155250877108, 68.30303433252395, 62.61031920882735 
111.8984578854716, 0.6305780767722711, 21.734747307205772, 48.31669813375979, 67.8939085789749, 62.61354497382938 
110.98656880786447, 0.8234143718763094, 21.734735592841606, 48.84542161298248, 67.47978660473412, 62.61685890023178 
110.0758585238104, 1.0218845735608333, 21.73472029324231, 49.339247820613686, 67.06103110278124, 62.620259104285765 
109.16633858238936, 1.2259313283943967, 21.73470113524935, 49.79965361891396, 66.63798460545891, 62.62374366069721 
108.25801838938882, 1.435496021087612, 21.73467784229156, 50.22806467324472, 66.21097061407133, 62.6273106043428 
107.35090518469748, 1.6505188139223224, 21.734650134818455, 50.62585336511154, 65.78029470718124, 62.63095793201349 
106.44500402236744, 1.8709386859324588, 21.734617730739462, 50.994337613161115, 65.34624561774241, 62.63468360418401 
105.54031775326938, 2.09669347175266, 21.73458034586865, 51.334780437066456, 64.90909627189414, 62.638485546805995 
104.63684701026106, 2.3277199000532782, 21.734537694374335, 51.64839012220437, 64.46910478444117, 62.642361653122585 
103.73459019578284, 2.563953631483463, 21.734489489232832, 51.93632086377586, 64.02651540781591, 62.64630978550231 
102.83354347179066, 2.805329296046669, 21.73443544268607, 52.199673787505425, 63.58155943273433, 62.65032777729057 
101.93370075193211, 3.051780529836154, 21.734375266702113, 52.4394982603428, 63.134456039869754, 62.65441343467571 
101.03505369586752, 3.303240011061305, 21.734308673438203, 52.65679341880416, 62.68541310272956, 62.65856453856836 
100.13759170563634, 3.559639495298629, 21.734235375705683, 52.85250985489145, 62.234627942575656, 62.66277884649161 
99.24130192396522, 3.8209098499048015, 21.73415508743616, 53.02755141010016, 61.78228803671392, 62.667054094479525 
98.34616923441395, 4.086981087532306, 21.73406752414829, 53.18277703705049, 61.32857168182823, 62.67138799898249 
97.45217626325292, 4.3577823986918744, 21.733972403414594, 53.319002695936064, 60.87364861427277, 62.67577825877661 
96.5593033829663, 4.6332421833089, 21.733869445327713, 53.43700325944971, 60.41768058938942, 62.68022255687572 
95.66752871727384, 4.913288081224876, 21.73375837296548, 53.537514405273974, 59.96082192200027, 62.68471856244321 
94.77682814756561, 5.197847001597852, 21.73363891285412, 53.62123447975859, 59.50321999025627, 62.68926393270222 
93.88717532064382, 5.486845151159565, 21.73351079542912, 53.68882632017646, 59.04501570501278, 62.69385631484163 
92.99854165766803, 5.78020806128992, 21.733373755493073, 53.74091902606591, 58.58634394686309, 62.69849334791607 
92.11089636420112, 6.077860613872955, 21.733227532669844, 53.778109672729656, 58.12733397289744, 62.703172664738034 
91.22420644125569, 6.379727065901543, 21.73307187185466, 53.8009649620563, 57.66810979517749, 62.70789189375972 
90.33843669724327, 6.6857310728010075, 21.73290652365922, 53.8100228075316, 57.20879053282654, 62.712648660943174 
89.45354976073118, 6.995795710445132, 21.732731244851664, 53.80579385167924, 56.74949073954052, 62.71744059161618 
88.56950609391569, 7.309843495840749, 21.732545798790323, 53.78876291526714, 56.29032070822563, 62.722265312312764 
87.68626400672284, 7.627796406460025, 21.73234995585119, 53.759390378484206, 55.83138675436826, 62.72712045259554 
86.80377967145307, 7.949575898202244, 21.732143493848152, 53.718113494970034, 55.372791479643844, 62.7320036468591 
85.92200713788897, 8.275102921969687, 21.731926198445592, 53.665347640102475, 54.91463401717373, 62.73691253611167 
85.040898348791, 8.60429793884436, 21.731697863562907, 53.601487495341175, 54.457010259745836, 62.7418447697342 
84.16040315570935, 8.937080933855286, 21.731458291770224, 53.52690817071334, 54.000013072223794, 62.74679800721439 
83.28046933504615, 9.2733714283279, 21.731207294674906, 53.441966267730315, 53.54373248928417, 62.7517699198545 
82.40104260430695, 9.613088490809552, 21.730944693298348, 53.347000885157286, 53.088255899539426, 62.756758192451336 
81.52206663848517, 9.956150746567284, 21.730670318442478, 53.24233457013512, 52.63366821702759, 62.76176052494645 
80.64348308652981, 10.302476385655815, 21.730384011045555, 53.12827421718786, 52.18005204097773, 62.76677463404546 
79.76523158785139, 10.65198316955587, 21.73008562252678, 53.005111917646, 51.72748780469243, 62.771798254804835 
78.88724978882777, 11.004588436384545, 21.72977501511923, 52.87312576198779, 51.27605391432579, 62.77682914218465 
78.0094733592769, 11.360209104681353, 21.729452062190667, 52.73258059754959, 50.82582687827633, 62.78186507256615 
77.13183600887047, 11.718761675775006, 21.729116648551884, 52.583728743991045, 50.37688142786016, 62.78690384523254 
76.25426950346798, 12.080162234737854, 21.728768670751982, 52.426810668822036, 49.92929062987832, 62.791943283812024 
75.37670368135828, 12.44432644993606, 21.728408037360445, 52.26205562521366, 49.48312599164587, 62.79698123768165 
74.49906646940173, 12.81116957118523, 21.728034669235353, 52.08968225422335, 49.03845755900675, 62.802015583330714 
73.62128389907267, 13.18060642652268, 21.727648499777594, 51.9098991534696, 48.59535400781752, 62.80704422568309 
72.74328012241058, 13.552551417608456, 21.727249475170545, 51.722905414196575, 48.15388272934695, 62.812065099376824 
71.86497742789305, 13.926918513769053, 21.726837554605037, 51.52889112857165, 47.71410991000313, 62.81707617000037 
70.98629625625377, 14.303621244698476, 21.72641271048924, 51.32803786896505, 47.276100605768875, 62.82207543528436 
70.10715521627398, 14.682572691833133, 21.72597492864304, 51.12051914086667, 46.83991881169606, 62.827060926248045 
69.22747110058576, 15.063685478417552, 21.72552420847694, 50.90650081100516, 46.405627526783704, 62.832030708299726 
