# MEX_intpoint_lon [deg], MEX_intpoint_lat [deg], MEX_intpoint_angle [deg], TGO_intpoint_lon [deg], TGO_intpoint_lat [deg], TGO_intpoint_angle [deg] 
-139.47742449870563, 19.628282371370823, 21.885266032293387, -27.325704366131152, 39.562540269686444, 62.93088035358163 
-140.36438835860054, 19.219974371638035, 21.88588053666497, -27.5763952350655, 39.977183350779896, 62.92618228583822 
-141.2497286324849, 18.812834911889727, 21.886482489096146, -27.821643082942206, 40.394282592924114, 62.92144539606037 
-142.133551826836, 18.406958516918646, 21.887071721362723, -28.061340349138355, 40.81377747551862, 62.91667117552411 
-143.01596272306585, 18.00243904917917, 21.88764808044874, -28.29537536142764, 41.235606861287735, 62.91186116338841 
-143.89706435976777, 17.59936973427461, 21.888211428561352, -28.523632116690308, 41.659708961657365, 62.907016946157476 
-144.77695801588973, 17.197843185332495, 21.888761643127197, -28.745990051129596, 42.08602129959999, 62.90214015708618 
-145.65574319468547, 16.79795142623524, 21.88929861677064, -28.962323799418748, 42.51448066981164, 62.897232475528845 
-146.5335176083056, 16.399785913675302, 21.889822257273646, -29.172502942172642, 42.94502309607528, 62.8922956262319 
-147.41037716290145, 16.003437558006034, 21.89033248751757, -29.376391741107742, 43.37758378565318, 62.88733137857014 
-148.2864159441275, 15.608996742860578, 21.890829245406916, -29.573848861222288, 43.81209708054037, 62.88234154572784 
-149.16172620293574, 15.21655334351334, 21.8913124837752, -29.764727079297128, 44.24849640539778, 62.87732798382426 
-150.0363983415685, 14.82619674395937, 21.891782170273096, -29.948872977985303, 44.68671421197093, 62.87229259098482 
-150.91052089966436, 14.43801585268867, 21.892238287239028, -30.126126624727046, 45.12668191978536, 62.86723730635794 
-151.78418054040168, 14.052099117133682, 21.892680831552433, -30.296321234694343, 45.56832985289442, 62.86216410907869 
-152.65746203661405, 13.668534536769112, 21.89310981446987, -30.459282816939286, 46.01158717243917, 62.857075017179355 
-153.53044825682042, 13.287409674844943, 21.89352526144426, -30.614829802890377, 46.45638180476157, 62.85197208644821 
-154.403220151122, 12.90881166873385, 21.893927211927537, -30.762772656313746, 46.902640364794046, 62.84685740923701 
-155.27585673692522, 12.53282723887613, 21.894315719156886, -30.902913463831087, 47.35028807442784, 62.84173311321813 
-156.14843508446046, 12.159542696305717, 21.89469084992504, -31.035045505065337, 47.799248675541335, 62.836601360092104 
-157.02103030207215, 11.78904394874237, 21.89505268433476, -31.158952801468082, 48.24944433734626, 62.831464344247095 
-157.89371552126494, 11.42141650523591, 21.895401315538052, -31.27440964287275, 48.70079555768581, 62.826324291370554 
-158.76656188149775, 11.056745479349981, 21.895736849460224, -31.381180090814414, 49.153221057892154, 62.821183457014904 
-159.63963851472568, 10.695115590873387, 21.89605940450946, -31.47901745766333, 49.60663767078401, 62.816044125117884 
-160.5130125296957, 10.336611166048977, 21.896369111272048, -31.56766376063804, 50.06096022135548, 62.810908606479046 
-161.38674899601065, 9.981316136310905, 21.89666611219375, -31.646849149795475, 50.51610139967679, 62.80577923719365 
-162.26091092798234, 9.629314035522505, 21.89695056124785, -31.716291309145205, 50.97197162549586, 62.80065837704513 
-163.13555926830068, 9.280687995708815, 21.897222623590192, -31.775694830105177, 51.42847890399523, 62.79554840785786 
-164.01075287155408, 8.935520741278898, 21.8974824752017, -31.82475055661139, 51.885528672124515, 62.79045173181113 
-164.88654848764068, 8.593894581735102, 21.897730302518884, -31.863134901318777, 52.34302363489171, 62.78537076971656 
-165.7630007451184, 8.255891402867825, 21.897966302052847, -31.890509132491175, 52.800863590959274, 62.78030795925975 
-166.64016213454616, 7.921592656436634, 21.898190679997146, -31.906518631380933, 53.25894524685279, 62.775265753208316 
-167.51808299187553, 7.5910793483399335, 21.89840365182529, -31.910792120151314, 53.71716201905104, 62.77024661758775 
-168.39681148195763, 7.264432025278137, 21.89860544187812, -31.90294086070625, 54.17540382318757, 62.76525302982694 
-169.2763935822353, 6.941730759916908, 21.89879628294181, -31.882557825173123, 54.633556849555504, 62.7602874768748 
-170.1568730666965, 6.6230551345597295, 21.898976415816957, -31.849216839246285, 55.09150332407093, 62.7553524532905 
-171.03829149016957, 6.308484223341187, 21.899146088879384, -31.80247170015622, 55.54912125381484, 62.750450459308205 
-171.92068817304548, 5.9980965729553235, 21.899305557633134, -31.741855271697684, 56.00628415624327, 62.745583998879184 
-172.80410018651776, 5.691970181935614, 21.89945508425637, -31.666878559547307, 56.46286077112865, 62.74075557769255 
-173.68856233843476, 5.390182478506162, 21.899594937140627, -31.577029771048046, 56.918714754276294, 62.73596770117707 
-174.57410715986165, 5.092810297026791, 21.8997253904242, -31.471773364757794, 57.373704352049195, 62.7312228724857 
-175.4607648924559, 4.799929853057241, 21.89984672352011, -31.3505490963783, 57.82768205573582, 62.726523590465405 
-176.34856347676012, 4.511616717069393, 21.89995922063931, -31.21277106922828, 58.28049423481119, 62.72187234761376 
-177.2375285415222, 4.227945786839193, 21.9000631703099, -31.057826799233617, 58.73198074817643, 62.717271628025166 
-178.1276833941527, 3.9489912585535625, 21.900158864892692, -30.885076306513273, 59.1819745325197, 62.712723905328396 
-179.0190490124337, 3.6748265966708775, 21.90024660009407, -30.693851248082368, 59.63030116702772, 62.708231640617676 
-179.9116440375928, 3.4055245025771255, 21.900326674476553, -30.48345410901483, 60.076778413799246, 62.703797280379845 
179.19451523114017, 3.1411568820833957, 21.900399388967795, -30.253157472652102, 60.521215733475486, 62.69942325441977 
178.2994148403775, 2.8817948118138603, 21.900465046368684, -30.002203394157306, 60.963413775818566, 62.695111973786034 
177.40304318470228, 2.627508504537301, 21.90052395086112, -29.729802905943, 61.40316384524609, 62.69086582869952 
176.50539100696335, 2.3783672734985353, 21.900576407516173, -29.435135688288014, 61.84024734168088, 62.6866871864871 
175.60645139662157, 2.134439495810131, 21.900622721803217, -29.117349943845998, 62.27443517751135, 62.682578389522895 
174.70621978603202, 1.8957925749681668, 21.90066319910069, -28.77556252076539, 62.70548717199811, 62.67854175317919 
173.80469394455042, 1.662492902559605, 21.900698144209247, -28.408859335806298, 63.133151425118314, 62.6745795637896 
172.90187397035297, 1.434605819232359, 21.900727860867644, -28.016296156150702, 63.55716367363509, 62.67069407662675 
171.99776227986322, 1.2121955750026738, 21.900752651272338, -27.596899806530455, 63.97724663312909, 62.66688751389699 
171.0923635946841, 0.9953252889778403, 21.900772815601194, -27.149669876770815, 64.39310933085932, 62.663162062754196 
170.18568492593502, 0.784056908575591, 21.90078865154204, -26.67358101374707, 64.80444643564839, 62.65951987333545 
169.27773555590306, 0.5784511683247618, 21.900800453826598, -26.16758589089006, 65.21093759253662, 62.655963056820546 
168.36852701691961, 0.3785675483348002, 21.900808513770503, -25.630618957479918, 65.612246771739, 62.65249368351786 
167.45807306738212, 0.18446423252448382, 21.900813118819965, -25.061601078657567, 66.00802164348488, 62.64911378097907 
166.5463896648475, -0.0038019332969281903, 21.900814552105583, -24.459445184855117, 66.39789299263371, 62.6458253321445 
165.63349493613111, -0.18617548340067047, 21.900813092004164, -23.823063055538032, 66.78147418954181, 62.642630273522116 
164.71940914435282, -0.3626023740638412, 21.90080901170873, -23.151373365932955, 67.15836073649496, 62.639530493401786 
163.80415465288283, -0.5330300253493714, 21.900802578807692, -22.44331112575554, 67.52812991209245, 62.636527830107376 
162.8877558861462, -0.6974073626394532, 21.900794054873373, -21.697838634619217, 67.89034053921775, 62.633624070288604 
161.97023928725784, -0.8556848578196812, 21.900783695060746, -20.913958068358284, 68.24453290558166, 62.63082094725537 
161.05163327246714, -1.00781457001023, 21.900771747716657, -20.090725792312107, 68.59022886916081, 62.62812013935586 
160.13196818240579, -1.1537501857398276, 21.90075845400024, -19.227268469926113, 68.9269321840189, 62.62552326840124 
159.21127623013984, -1.293447058457729, 21.900744047514866, -18.32280099601454, 69.25412908478907, 62.623031898138365 
158.28959144604096, -1.4268622472792638, 21.900728753952272, -17.376646231961658, 69.57128917025034, 62.62064753277292 
157.3669496195026, -1.5539545548607419, 21.900712790749164, -16.388256453542173, 69.87786662764186, 62.61837161554488 
156.44338823753918, -1.674684564300406, 21.900696366756947, -15.357236339966416, 70.17330183925887, 62.616205527357344 
155.5189464203179, -1.7890146749634532, 21.90067968192484, -14.2833672350742, 70.45702341106251, 62.61415058546213 
154.59366485368562, -1.8969091371307165, 21.900662926996866, -13.16663229937558, 70.72845065908147, 62.612208042202006 
153.66758571876477, -1.9983340853727605, 21.900646283223182, -12.007242047496703, 70.98699658286908, 62.61037908381265 
152.7407526187049, -2.0932575705534835, 21.90062992208601, -10.805659634098825, 71.23207134582756, 62.60866482928529 
151.81321050268787, -2.1816495903705033, 21.900614005040655, -9.56262511927732, 71.46308626954959, 62.607066329291385 
150.88500558729697, -2.2634821183426106, 21.90059868327178, -8.279177820922857, 71.67945833333991, 62.60558456517124 
149.95618527537113, -2.338729131158531, 21.90058409746553, -6.9566757578329, 71.8806151508851, 62.60422044798757 
149.0267980724767, -2.407366634305284, 21.90057037759751, -5.596811116482873, 72.06600037404492, 62.60297481764551 
148.09689350114002, -2.4693726858988256, 21.90055764273711, -4.201620650061284, 72.23507944970137, 62.60184844207993 
147.16652201299345, -2.5247274186447255, 21.900546000868346, -2.7734899538197073, 72.38734563065134, 62.60084201651153 
146.2357348989982, -2.5734130598616556, 21.900535548727518, -1.3151506668435409, 72.52232611715235, 62.59995616277231 
145.30458419791447, -2.615413949506021, 21.900526371657726, 0.1703301664064552, 72.63958818371628, 62.59919142870186 
144.37312260319936, -2.650716556142101, 21.900518543480764, 1.6795690806224384, 72.73874512805095, 62.59854828761467 
143.44140336851862, -2.6793094908078197, 21.90051212638617, 3.208893695067556, 72.81946186763463, 62.598027137839715 
142.50948021206645, -2.701183518732984, 21.900507170837912, 4.754378529325882, 72.88146000601206, 62.597628302332495 
141.57740721989174, -2.7163315688731395, 21.900503715498647, 6.311888503106624, 72.92452219680742, 62.597352028360355 
140.64523874843468, -2.724748741229084, 21.90050178717169, 7.877129078310516, 72.94849564926942, 62.59719848726173 
139.7130293264817, -2.7264323119289435, 21.900501400760817, 9.445701620440689, 72.9532946446762, 62.59716777427867 
138.7808335567483, -2.7213817360568098, 21.900502559247897, 11.013162243668773, 72.93890196700173, 62.59725990846425 
137.84870601730248, -2.709598648218869, 21.90050525368844, 12.57508218892379, 72.90536919189884, 62.59747483266396 
136.91670116304147, -2.6910868608453704, 21.900509463224978, 14.127107688263841, 72.8528158226099, 62.59781241357129 
135.98487322743392, -2.6658523602337008, 21.900515155118388, 15.665017301098837, 72.78142730677145, 62.598272441857844 
135.05327612473982, -2.633903300345158, 21.900522284797, 17.184774865321838, 72.69145201105357, 62.598854632377396 
134.12196335291594, -2.5952499943749023, 21.90053079592347, 18.682576473504174, 72.58319726823387, 62.599558624443844 
133.19098789741392, -2.54990490412178, 21.90054062047939, 20.154890235323105, 72.45702464129701, 62.60038398218245 
132.26040213607118, -2.4978826271912844, 21.90055167886736, 21.59848799006883, 72.3133445699008, 62.60133019495409 
131.33025774529227, -2.4391998820717826, 21.900563880030564, 23.010468552821358, 72.15261057538568, 62.60239667785186 
130.40060560770976, -2.373875491130557, 21.90057712158962, 24.388272481900934, 71.97531320163694, 62.603582772269505 
129.4714957215089, -2.3019303615823534, 21.900591289996466, 25.72968871590869, 71.7819738615087, 62.604887746540605 
128.542977111591, -2.2233874644892877, 21.900606260705167, 27.03285372603411, 71.57313874372716, 62.606310796647854 
127.6150977427432, -2.138271811856428, 21.900621898359372, 28.29624405173967, 71.34937291508622, 62.60785104700149 
126.68790443497198, -2.046610431892943, 21.90063805699615, 29.518663232104725, 71.11125472931559, 62.609507551285795 
125.76144278114887, -1.9484323425136245, 21.90065458026606, 30.69922421472624, 70.85937062913108, 62.611279293372476 
124.83575706710651, -1.8437685231602552, 21.90067130166891, 31.837328328096543, 70.59431040331872, 62.613165188299824 
123.91089019431091, -1.7326518850267474, 21.90068804480519, 32.93264185406723, 70.3166629375709, 62.61516408331605 
122.98688360522723, -1.6151172397757252, 21.900704623642618, 33.985071148023145, 70.0270124771258, 62.61727475898586 
122.06377721148166, -1.4912012668378611, 21.900720842797572, 34.99473713924764, 69.72593540163945, 62.61949593035849 
121.14160932491298, -1.3609424793883924, 21.90073649783102, 35.961949914885054, 69.41399749839617, 62.62182624819566 
120.22041659159324, -1.2243811890977743, 21.900751375558436, 36.88718395813792, 69.09175170893273, 62.62426430025791 
119.30023392888633, -1.0815594697561064, 21.900765254373468, 37.77105448281754, 68.75973631621011, 62.626808612647714 
118.38109446560011, -0.9325211198722917, 21.900777904584864, 38.61429518774177, 68.41847353428317, 62.629457651207375 
117.4630294852762, -0.7773116243508918, 21.900789088766114, 39.41773764929883, 68.06846845958987, 62.632209822970054 
116.54606837264916, -0.6159781153502821, 21.900798562117473, 40.182292480567455, 67.71020834207782, 62.63506347766214 
115.63023856329525, -0.448569332426594, 21.900806072839895, 40.908932311124005, 67.34416213499024, 62.6380169092548 
114.71556549647913, -0.27513558206809546, 21.900811362520194, 41.59867658249263, 66.97078028385786, 62.641068357562574 
113.8020725711954, -0.09572869672447573, 21.900814166527223, 42.25257810886089, 66.59049471775259, 62.64421600988776 
112.8897811053914, 0.08959800656478943, 21.900814214418197, 42.87171131955767, 66.20371900886421, 62.64745800270749 
111.97871029834675, 0.2807897678399135, 21.900811230355046, 43.4571620770788, 65.81084866973568, 62.650792423401974 
111.06887719617465, 0.4777904260860666, 21.900804933529788, 44.01001895034053, 65.4122615608527, 62.65421731202158 
110.16029666040141, 0.6805424611938401, 21.900795038598705, 44.53136581564405, 65.00831838459528, 62.65773066309044 
109.25298133957004, 0.8889870359162773, 21.90078125612467, 45.02227565600481, 64.59936324472768, 62.66133042744481 
108.34694164380686, 1.1030640377257241, 21.900763293026884, 45.48380543170196, 64.18572425356234, 62.66501451410308 
107.44218572228014, 1.3227121204761878, 21.900740853037703, 45.91699190000622, 63.76771417164734, 62.668780792165826 
106.53871944347468, 1.5478687457793896, 21.90071363716566, 46.3228482691182, 63.34563106727432, 62.672627092743426 
105.63654637819707, 1.778470224005516, 21.900681344164358, 46.70236157965294, 62.91975898528284, 62.67655121090888 
104.73566778522255, 2.014451754822482, 21.900643671006346, 47.056490715957736, 62.490368616553205, 62.68055090767312 
103.83608259948655, 2.2557474671909, 21.90060031336165, 47.386164958711866, 62.05771796124665, 62.684623911981234 
102.93778742272158, 2.5022904587348958, 21.90055096608004, 47.69228299930328, 61.62205298028827, 62.688767922726576 
102.04077651643377, 2.7540128344124533, 21.900495323676548, 47.97571234518382, 61.18360823081395, 62.69298061078052 
101.14504179711095, 3.0108457444125594, 21.900433080819713, 48.23728905361598, 60.74260748234013, 62.69725962103576 
100.25057283355132, 3.2727194212096533, 21.9003639328216, 48.47781773884993, 60.299264311285334, 62.701602574460495 
99.35735684619834, 3.5395632157098342, 21.900287576129305, 48.69807180475968, 59.8537826721956, 62.70600707016136 
98.46537870836728, 3.8113056324266408, 21.900203708817035, 48.89879386130743, 59.40635744462243, 62.7104706874525 
97.57462094924607, 4.0878743636282, 21.90011203107823, 49.08069628890422, 58.95717495508727, 62.71499098792868 
96.68506375855411, 4.369196322400802, 21.90001224571718, 49.244461919817624, 58.50641347395926, 62.71956551754009 
95.79668499274132, 4.655197674578069, 21.899904058639223, 49.39074481027992, 58.05424368738475, 62.72419180866633 
94.90946018261118, 4.945803869488075, 21.89978717933917, 49.52017108091531, 57.60082914465301, 62.72886738218758 
94.02336254225183, 5.24093966947473, 21.899661321387146, 49.6333398065775, 57.14632668157016, 62.73358974955047 
93.13836297916154, 5.540529178152943, 21.899526202911296, 49.73082393971587, 56.690886820556656, 62.73835641482662 
92.25443010545573, 5.844495867360743, 21.899381547076665, 49.81317125401453, 56.234654148285536, 62.743164876761455 
91.37153025004629, 6.152762602774873, 21.89922708255964, 49.880905297318385, 55.77776767175094, 62.74801263081118 
90.48962747168588, 6.465251668159485, 21.8990625440174, 49.9345263448124, 55.32036115370182, 62.75289717116596 
89.60868357277309, 6.781884788221049, 21.89888767255166, 49.974512345094645, 54.862563428400094, 62.75781599275702 
88.72865811381887, 7.102583150045317, 21.898702216166154, 50.001319853213055, 54.40449869867147, 62.76276659324545 
87.84950842847655, 7.427267423095515, 21.898505930217258, 50.01538494595187, 53.94628681521109, 62.76774647499124 
86.97118963904437, 7.755857777753371, 21.8982985778572, 50.01712411568366, 53.488043539091926, 62.77275314700002 
86.09365467235126, 8.08827390238787, 21.898079930469144, 50.006935139972526, 53.029880788400106, 62.77778412684573 
85.21685427594421, 8.424435018938532, 21.897849768093753, 49.98519792484451, 52.57190686989303, 62.78283694256753 
84.34073703449752, 8.76425989700331, 21.897607879846532, 49.95227532025115, 52.11422669654273, 62.78790913453893 
83.46524938637212, 9.107666866422814, 21.89735406432546, 49.90851390676111, 51.656941991791435, 62.79299825730727 
82.59033564025682, 9.45457382835536, 21.897088130008417, 49.85424475293388, 51.2001514813084, 62.798101881401976 
81.7159379918298, 9.804898264839277, 21.896809895639745, 49.789784143174415, 50.74395107299858, 62.803217595110084 
80.8419965403841, 10.158557246840767, 21.896519190605648, 49.71543427614917, 50.28843402597473, 62.808343006216596 
79.9684493053673, 10.515467440787932, 21.896215855297623, 49.63148393406951, 49.83369110916624, 62.813475743709276 
79.09523224279155, 10.875545113592782, 21.89589974146383, 49.53820912333019, 49.379810750199624, 62.81861345944532 
78.22227926147609, 11.238706136165453, 21.895570712547563, 49.43587368713179, 48.92687917514899, 62.823753829778944 
77.34952223909202, 11.60486598542566, 21.89522864401265, 49.32472989082572, 48.474980539718885, 62.82889455714839 
76.47689103798446, 11.973939744818695, 21.89487342365511, 49.20501898080263, 48.02419705238761, 62.834033371620805 
75.60431352075496, 12.345842103344033, 21.89450495190088, 49.07697171780379, 47.57460909000609, 62.83916803239413 
74.73171556559419, 12.720487353106396, 21.894123142089022, 48.94080888557615, 47.126295306316145, 62.844296329254114 
73.85902108136099, 13.097789385400304, 21.893727920740126, 48.79674177581628, 46.679332733821795, 62.84941608398583 
72.98615202241295, 13.477661685340097, 21.893319227809556, 48.64497265035998, 46.23379687942, 62.854525151738194 
72.11302840319948, 13.860017325049094, 21.892897016925005, 48.485695181576816, 45.789761814168905, 62.85962142234073 
71.23956831263767, 14.244768955422133, 21.892461255608357, 48.319094871920974, 45.34730025754843, 62.86470282157119 
70.36568792829763, 14.631828796477322, 21.892011925481214, 48.14534945357674, 44.9064836565427, 62.86976731237335 
