# MEX_intpoint_lon [deg], MEX_intpoint_lat [deg], MEX_intpoint_angle [deg], TGO_intpoint_lon [deg], TGO_intpoint_lat [deg], TGO_intpoint_angle [deg] 
-138.9915955819606, 19.514154843499906, 21.55153159989813, -27.636627308140067, 43.58518186727967, 62.84433330664956 
-139.88956779546783, 19.12367593422686, 21.552106887154295, -27.94757952918975, 43.98576679582645, 62.83974560071034 
-140.78591668024725, 18.73426595919764, 21.552670863332118, -28.254018497067126, 44.38899974870406, 62.83512640086278 
-141.6807413659248, 18.346017801315217, 21.553223370269258, -28.555851138050794, 44.79483131985539, 62.83047715540571 
-142.57413948473615, 17.959023689444045, 21.5537642635065, -28.85298050990021, 45.203211728908215, 62.825799351704404 
-143.46620714672807, 17.57337521948521, 21.554293412303025, -29.145305572194882, 45.61409080007747, 62.82109451567881 
-144.35703891616876, 17.189163374546432, 21.55481069963508, -29.432720943379344, 46.027417939192006, 62.81636421124487 
-145.24672778902755, 16.80647854417025, 21.55531602217823, -29.715116643588985, 46.44314210873158, 62.81161003970942 
-146.13536517139505, 16.425410542584817, 21.555809290273114, -29.992377822260202, 46.8612118007507, 62.80683363911837 
-147.02304085872439, 16.04604862594499, 21.556290427874846, -30.26438446945058, 47.28157500755436, 62.80203668355911 
-147.90984301578354, 15.668481508532082, 21.556759372486212, -30.531011109711578, 47.704179189979726, 62.797220882416944 
-148.79585815721776, 15.292797377883511, 21.557216075074674, -30.792126477264905, 48.128971243123985, 62.79238797958643 
-149.68117112863135, 14.919083908824566, 21.557660499973473, -31.047593171136725, 48.55589745934542, 62.7875397526378 
-150.56586508810514, 14.547428276376412, 21.558092624766847, -31.297267288797418, 48.984903488348486, 62.782678011938906 
-151.45002148807558, 14.177917167516107, 21.55851244015965, -31.5409980367404, 49.415934294146965, 62.77780459973359 
-152.33372005750994, 13.810636791765512, 21.55891994983151, -31.778627316309965, 49.84893410868069, 62.772921389176794 
-153.21703878431896, 13.445672890587877, 21.55931517027578, -32.00998928295454, 50.28384638184062, 62.76803028332716 
-154.10005389795774, 13.083110745571748, 21.559698130623534, -32.23490987693725, 50.72061372763503, 62.76313321409779 
-154.98283985217213, 12.723035185383878, 21.560068872452785, -32.45320632338039, 51.159177866204324, 62.758232141166154 
-155.8654693078563, 12.365530591473377, 21.560427449583255, -32.66468659935199, 51.59947956136535, 62.75332905084344 
-156.7480131159934, 12.010680902511465, 21.560773927857035, -32.86914886552174, 52.04145855333627, 62.748425954904974 
-157.6305403006601, 11.658569617551956, 21.561108384905324, -33.06638085971878, 52.48505348626009, 62.743524889381796 
-158.5131180420807, 11.309279797899402, 21.56143090990164, -33.25615924951338, 52.93020183010901, 62.73862791331486 
-159.395811659725, 10.962894067672845, 21.56174160330191, -33.43824894072018, 53.37683979651249, 62.73373710747299 
-160.2786845954498, 10.619494613054968, 21.562040576571572, -33.612402338478084, 53.82490224800775, 62.72885457303498 
-161.16179839669059, 10.279163180217555, 21.562327951900382, -33.77835855730397, 54.27432260016385, 62.72398243023761 
-162.04521269971718, 9.94198107191587, 21.56260386190495, -33.93584257624098, 54.72503271597765, 62.71912281699047 
-162.92898521297113, 9.608029142746227, 21.56286844931981, -34.08456433492854, 55.17696279188131, 62.71427788745868 
-163.81317170051113, 9.277387793062367, 21.563121866677015, -34.22421776610921, 55.630041234637616, 62.709449810614984 
-164.69782596559673, 8.950136961548479, 21.563364275975015, -34.35447975975846, 56.08419452832778, 62.70464076876218 
-165.58299983444743, 8.626356116447877, 21.56359584833711, -34.47500905367726, 56.53934709055963, 62.69985295602778 
-166.46874314021858, 8.30612424544879, 21.56381676365994, -34.58544504502606, 56.9954211169376, 62.69508857683129 
-167.35510370724208, 7.989519844230208, 21.564027210252526, -34.68540651690394, 57.45233641274197, 62.69034984432676 
-168.24212733558397, 7.676620903673206, 21.564227384466285, -34.7744902736929, 57.910010210660836, 62.68563897882102 
-169.12985778597604, 7.367504895744881, 21.564417490316593, -34.852269678497095, 58.36835697330402, 62.68095820616973 
-170.01833676518407, 7.0622487580645625, 21.564597739096232, -34.91829308561926, 58.8272881791027, 62.67630975615233 
-170.90760391187862, 6.760928877163992, 21.564768348981474, -34.972082160637875, 59.286712090060554, 62.6716958608278 
-171.79769678307923, 6.463621070456004, 21.56492954463106, -35.013130080291276, 59.746533499670555, 62.667118752872916 
-172.6886508412463, 6.170400566928164, 21.5650815567788, -35.04089960405435, 60.20665345914688, 62.66258066390394 
-173.5804994420999, 5.881341986580744, 21.565224621820274, -35.05482100902691, 60.66696897993927, 62.658083822784356 
-174.4732738232457, 5.5965193186312066, 21.565358981394077, -35.05428987956677, 61.12737271030018, 62.653630453919746 
-175.36700309369425, 5.3160058985095695, 21.565484881958287, -35.03866474302569, 61.587752583460684, 62.649222775541695 
-176.26171422436013, 5.039874383672488, 21.56560257436271, -35.007264543021584, 62.047991434737455, 62.644862997982564 
-177.1574320396311, 4.768196728266318, 21.565712313417325, -34.95936594195716, 62.507966584643064, 62.640553321942676 
-178.05417921009982, 4.5010441566725365, 21.56581435745765, -34.8942004450349, 62.96754938480197, 62.63629593675221 
-178.951976246551, 4.2384871359718845, 21.56590896790755, -34.8109513389006, 63.42660472318708, 62.63209301862905 
-179.85084149529953, 3.980595347366747, 21.565996408839986, -34.70875043936909, 63.884990484888554, 62.62794672893478 
179.24920886502505, 3.7274376566041862, 21.56607694653638, -34.58667464456819, 64.34255696430847, 62.623859212430816 
178.348160825151, 3.479082083445212, 21.566150849045155, -34.44374229242888, 64.79914622434748, 62.619832595536096 
177.44600254519804, 3.2355957702292817, 21.566218385739973, -34.27890932493617, 65.25459139781753, 62.615868984588765 
176.54272435297582, 2.9970449495855767, 21.566279826878265, -34.091065266158445, 65.70871592598708, 62.61197046411336 
175.6383187404536, 2.763494911346411, 21.566335443160753, -33.87902902706975, 66.16133272885372, 62.608139095095716 
174.73278035830623, 2.535009968720615, 21.566385505292313, -33.64154455789877, 66.6122433014596, 62.604376913267195 
173.8261060084468, 2.311653423788239, 21.566430283544985, -33.37727637858011, 67.061236730339, 62.60068592740047 
172.9182946344559, 2.0934875323805886, 21.566470047323545, -33.08480503032307, 67.50808862404446, 62.597068117618754 
172.00934730982206, 1.8805734684128144, 21.566505064734294, -32.7626225069159, 67.95255995167378, 62.59352543372006 
171.09926722391185, 1.6729712877388936, 21.566535602157554, -32.40912774380804, 68.3943957834655, 62.59005979351901 
170.18805966559023, 1.4707398916016259, 21.566561923824587, -32.0226222670212, 68.83332392790642, 62.586673081207536 
169.2757320044183, 1.273936989752973, 21.566584291399234, -31.601306133399675, 69.26905346048028, 62.58336714573671 
168.36229366936024, 1.0826190633223733, 21.56660296356515, -31.143274329579263, 69.701273140283, 62.580143799221595 
167.44775612493623, 0.8968413275130791, 21.566618195618812, -30.646513840364364, 70.12964971235994, 62.5770048153708 
166.53213284476476, 0.7166576942086055, 21.566630239069237, -30.108901649016783, 70.5538260959362, 62.573951927942844 
165.61543928244478, 0.542120734573342, 21.566639341244496, -29.52820399328676, 70.97341946189952, 62.57098682923089 
164.6976928397344, 0.3732816417330322, 21.56664574490599, -28.90207727270226, 71.3880192071741, 62.56811116857808 
163.77891283199108, 0.21019019362241687, 21.566649687870648, -28.228071085167016, 71.79718483925309, 62.56532655092473 
162.85912045084652, 0.05289471608841846, 21.566651402641707, -27.5036339641796, 72.20044379143029, 62.56263453538968 
161.93833872409647, -0.09855795366175137, 21.56665111604851, -26.72612249086524, 72.59728919851102, 62.56003663388706 
161.01659247279636, -0.24412250317742762, 21.566649048895883, -25.89281456492096, 72.98717767432798, 62.55753430978059 
160.09390826556123, -0.3837551803557857, 21.5666454156234, -25.00092773079557, 73.36952714657124, 62.555128976576704 
159.17031437007844, -0.5174138284170925, 21.566640423975148, -24.047643562318953, 73.7437148215404, 62.55282199665837 
158.2458407018517, -0.6450579201735673, 21.56663427468025, -23.030139199068337, 74.10907537161303, 62.550614680061074 
157.32051877020314, -0.766648591502024, 21.566627161144844, -21.945627184667458, 74.46489946146342, 62.548508283292435 
156.3943816215728, -0.8821486739314774, 21.566619269155513, -20.791404758854437, 74.81043275500777, 62.546504008197175 
155.46746378016172, -0.991522726257952, 21.566610776595034, -19.564913673057593, 75.14487557287865, 62.544603000868456 
154.53980118597798, -1.0947370651005326, 21.56660185317043, -18.263811398695022, 75.46738339845939, 62.54280635060738 
153.61143113035277, -1.1917597943143026, 21.566592660153876, -16.886054238935273, 75.77706845682293, 62.54111508893184 
152.6823921890047, -1.282560833178336, 21.56658335013679, -15.429992297223714, 76.07300261195988, 62.53953018863566 
151.75272415274043, -1.3671119432793997, 21.5665740667974, -13.894475463102328, 76.3542218389627, 62.53805256289981 
150.82246795588864, -1.4453867540148904, 21.566564944682067, -12.278968525349457, 76.61973252375505, 62.53668306445631 
149.8916656025743, -1.5173607866419094, 21.56655610900077, -10.583672218718585, 76.86851981709292, 62.53542248480622 
148.96036009094954, -1.5830114768029073, 21.56654767543685, -8.809645500279037, 77.0995582152864, 62.53427155349249 
148.02859533550458, -1.6423181954622181, 21.566539749971398, -6.9589227389936905, 77.31182445162864, 62.533230937428904 
147.09641608759293, -1.695262268191987, 21.56653242872255, -5.034617960972551, 77.50431265648484, 62.532301240285506 
146.1638678543102, -1.7418269927505456, 21.566525797799716, -3.0410070653248513, 77.67605158123207, 62.53148300193201 
145.23099681587513, -1.7819976549008532, 21.566519933173126, -0.9835783060652237, 77.82612348871224, 62.5307766979391 
144.29784974166637, -1.8157615424218636, 21.566514900558815, 1.130958370355113, 77.95368410502098, 62.53018273913889 
143.36447390507638, -1.8431079572706033, 21.566510755319072, 3.294711082212499, 78.05798282646235, 62.529701471244955 
142.43091699734717, -1.8640282258583316, 21.56650754237874, 5.498700068731351, 78.13838220959103, 62.529333174532084 
141.49722704055858, -1.878515707409662, 21.56650529615721, 7.733007306223628, 78.19437567194113, 62.52907806357684 
140.56345229994335, -1.8865658003793357, 21.566504040516367, 9.986978145501931, 78.22560232334213, 62.52893628705861 
139.62964119570552, -1.8881759469069852, 21.566503788724518, 12.24946635919009, 78.23185794961974, 62.528907927621745 
138.6958422145222, -1.8833456352964764, 21.56650454343633, 14.509109382500867, 78.21310138316183, 62.528993001798916 
137.76210382090886, -1.8720764005121324, 21.56650629668881, 16.754617147273642, 78.16945580082015, 62.5291914599959 
136.8284743686307, -1.8543718226903887, 21.56650902991335, 18.975056340132248, 78.10120485415189, 62.52950318653737 
135.89500201233983, -1.8302375236714217, 21.566512713963803, 21.1601124468478, 78.00878391386664, 62.52992799977438 
134.96173461961985, -1.7996811615612975, 21.566517309160556, 23.300314479086953, 77.89276705085086, 62.530465652252516 
134.0287196836155, -1.7627124233412466, 21.566522765350552, 25.387211362372465, 77.75385063883093, 62.53111583094137 
133.09600423642323, -1.7193430155464544, 21.56652902198315, 27.413493900338693, 77.59283462202148, 62.53187815752436 
132.16363476341482, -1.6695866530427246, 21.56653600820185, 29.373061252002234, 77.41060253696011, 62.532752188748816 
131.23165711866255, -1.6134590459348035, 21.566543642951455, 31.261035289133964, 77.20810132081407, 62.5337374168359 
130.30011644162826, -1.5509778846459348, 21.566551835100945, 33.07372957191202, 76.98632180158145, 62.53483326994977 
129.36905707527458, -1.4821628232131638, 21.566560483581522, 34.808581780542, 76.74628057837275, 62.5360391127253 
128.4385224857485, -1.4070354608483853, 21.566569477539954, 36.464059292441775, 76.48900379232924, 62.537354246853724 
127.5085551837828, -1.3256193218197019, 21.566578696506713, 38.03954739529042, 76.21551308624888, 62.53877791172567 
126.5791966479505, -1.2379398337123517, 21.566588010578947, 39.53522866400657, 75.92681387202825, 62.54030928513018 
125.65048724990265, -1.1440243041329339, 21.566597280617913, 40.951960611151094, 75.62388588018517, 62.54194748400969 
124.72246618170838, -1.0439018959244373, 21.56660635846057, 42.29115711731348, 75.30767585868287, 62.543691565268944 
123.79517138540943, -0.9376036009635815, 21.566615087145237, 43.554677569535144, 74.97909221752003, 62.54554052663766 
122.86863948489113, -0.8251622126152306, 21.566623301150727, 44.74472621970064, 74.6390013762853, 62.54749330758559 
121.94290572016212, -0.7066122969218346, 21.566630826648957, 45.863763094883105, 74.28822555774144, 62.549548790288604 
121.01800388412633, -0.581990162608543, 21.566637481770464, 46.91442687144796, 73.9275417748673, 62.55170580064467 
120.09396626191972, -0.45133382998712596, 21.56664307688258, 47.89946945354898, 73.55768177558063, 62.55396310933856 
119.17082357287485, -0.31468299884389855, 21.566647414879885, 48.82170154371231, 73.17933273353101, 62.556319432954 
118.2486049151664, -0.1720790153985552, 21.56665029148654, 49.68394821884161, 72.79313850097348, 62.55877343513144 
117.32733771318003, -0.023564838422233468, 21.566651495570092, 50.48901338835962, 72.39970126799432, 62.56132372777052 
116.40704766763805, 0.13081499539580033, 21.56665080946641, 51.239651974934326, 71.99958349938295, 62.5639688722753 
115.4877587085039, 0.29101440674272283, 21.566648009315177, 51.93854869066529, 71.59331004510543, 62.56670738084105 
114.5694929506796, 0.4569858095475578, 21.56664286540567, 52.58830235748045, 71.18137034206774, 62.569537717780634 
113.65227065249907, 0.6286801473268391, 21.566635142532196, 53.191414820693, 70.7642206434891, 62.572458300889416 
112.7361101770124, 0.8060469299201679, 21.566624600358917, 53.750283615397386, 70.34228622781686, 62.57546750284607 
111.82102795604624, 0.9890342705259175, 21.566610993793336, 54.26719765720122, 69.9159635519393, 62.57856365264883 
110.90703845701701, 1.1775889229481946, 21.5665940733682, 54.74433533562242, 69.48562232380331, 62.58174503708433 
109.99415415246648, 1.3716563189670656, 21.566573585631154, 55.1837644867703, 69.05160747775778, 62.58500990222778 
109.08238549227961, 1.5711806057456683, 21.566549273541654, 55.58744380989408, 68.61424104235593, 62.58835645497266 
108.17174087853897, 1.7761046831891858, 21.566520876874705, 55.95722536946164, 68.17382389526934, 62.591782864588026 
107.26222664296199, 1.9863702411726913, 21.566488132630802, 56.29485789084963, 67.73063740367033, 62.59528726430149 
106.3538470268616, 2.201917796556647, 21.56645077545155, 56.60199061417627, 67.2849449511658, 62.59886775290613 
105.44660416356416, 2.422686729911338, 21.56640853804046, 56.8801775182391, 66.83699335431795, 62.60252239638951 
104.54049806321432, 2.6486153218735686, 21.5663611515883, 57.13088176597737, 66.38701417313271, 62.60624922958259 
103.63552659988996, 2.8796407890618547, 21.566308346202568, 57.35548025541768, 65.9352249207742, 62.610046257826944 
102.73168550094792, 3.115699319478651, 21.566249851340313, 57.55526818668057, 65.48183017828292, 62.61391145865838 
101.82896833851576, 3.356726107331162, 21.566185396243977, 57.73146357724124, 65.02702262032737, 62.61784278350447 
100.92736652304231, 3.602655387205177, 21.566114710379487, 57.885211675061846, 64.57098395807247, 62.62183815939496 
100.02686929881705, 3.85342046752909, 21.566037523876158, 58.01758923315777, 64.11388580515933, 62.62589549068231 
99.12746374136593, 4.108953763268669, 21.565953567967732, 58.12960862023629, 63.65589047260211, 62.63001266077098 
98.22913475662949, 4.3691868277957875, 21.565862575434075, 58.22222175077237, 63.19715169815254, 62.63418753385324 
97.3318650818277, 4.63405038387792, 21.565764281042846, 58.29632382469844, 62.737815315383614, 62.638417956649654 
96.43563528791627, 4.903474353737775, 21.565658421990626, 58.35275687214797, 62.27801986742408, 62.642701760152434 
95.54042378353704, 5.17738788813622, 21.565544738342957, 58.39231310270584, 61.81789716994303, 62.647036761369634 
94.64620682036757, 5.455719394434032, 21.565422973472558, 58.41573806163353, 61.35757282765416, 62.651420765068444 
93.75295849977327, 5.738396563591938, 21.56529287449539, 58.423733597752296, 60.8971667082852, 62.65585156551555 
92.86065078066875, 6.025346396070672, 21.565154192703805, 58.416960649253646, 60.43679337764756, 62.6603269482128 
91.96925348849499, 6.3164952265963965, 21.565006683996227, 58.396041854794454, 59.97656249914526, 62.66484469162651 
91.07873432522116, 6.611768747759649, 21.564850109302924, 58.36156399793397, 59.51657920078357, 62.669402568908254 
90.1890588802829, 6.911092032418587, 21.564684235007213, 58.314080293369756, 59.05694441247782, 62.673998349605746 
89.3001906423702, 7.214389554880795, 21.56450883336147, 58.25411252359831, 58.59775517622092, 62.678629801361865 
88.41209101198235, 7.521585210839921, 21.564323682897662, 58.18215303462117, 58.13910493144427, 62.68329469159989 
87.52471931466913, 7.83260233604689, 21.564128568831563, 58.09866659918194, 57.6810837777011, 62.68799078919389 
86.63803281488258, 8.14736372369733, 21.563923283460312, 58.0040921557904, 57.223778716611704, 62.692715866122036 
85.75198673036599, 8.465791640520061, 21.563707626552695, 57.898844431493124, 56.76727387483724, 62.69746769910116 
84.86653424701215, 8.787807841553276, 21.563481405731682, 57.783315456009454, 56.31165070969012, 62.70224407120179 
83.98162653412601, 9.113333583598056, 21.563244436848773, 57.65787597448157, 55.856988198844576, 62.70704277344079 
83.09721276003248, 9.442289637340526, 21.56299654434943, 57.52287676570349, 55.40336301547962, 62.71186160635149 
82.2132401079745, 9.774596298136522, 21.562737561629483, 57.378649872303654, 54.95084969006666, 62.71669838152896 
81.32965379225087, 10.110173395454698, 21.562467331381594, 57.22550974896831, 54.49952075990485, 62.72155092314881 
80.4463970745501, 10.448940300975623, 21.562185705931768, 57.06375433441305, 54.04944690740894, 62.726417069459345 
79.56341128043972, 10.79081593534699, 21.561892547565076, 56.89366605244151, 53.60069708806358, 62.731294674244026 
78.68063581597869, 11.135718773596114, 21.56158772884043, 56.71551274707622, 53.15333864887723, 62.7361816082545 
77.79800818442332, 11.48356684920344, 21.561271132893797, 56.52954855640869, 52.707437438094, 62.7410757606119 
76.91546400300604, 11.834277756841685, 21.56094265372962, 56.3360147294956, 52.26305790685497, 62.74597504017556 
76.03293701976965, 12.187768653787591, 21.560602196499858, 56.13514039032476, 51.82026320343895, 62.75087737687806 
75.15035913044822, 12.543956260014246, 21.560249677770475, 55.92714325258974, 51.379115260657834, 62.75578072302529 
74.2676603953908, 12.902756856973696, 21.55988502577483, 55.71223028874486, 50.939674876930546, 62.76068305456073 
73.38476905653062, 13.264086285081143, 21.559508180653694, 55.49059835656201, 50.50200179151442, 62.76558237229248 
72.50161155441067, 13.627859939912996, 21.559119094681677, 55.262434786177636, 50.06615475433122, 62.770476703082416 
71.61811254528143, 13.993992767133069, 21.55871773247948, 55.02791793040045, 49.63219159078688, 62.775364100996455 
70.73419491829513, 14.36239925616192, 21.558304071211957, 54.78721768084857, 49.20016926195024, 62.780242648414955 
69.84977981282715, 14.732993432606264, 21.557878100771532, 54.54049595229625, 48.7701439204244, 62.78511045710259 
68.9647866359637, 15.105688849466192, 21.557439823946794, 54.28790713743659, 48.342170962216166, 62.78996566923672 
