# MEX_intpoint_lon [deg], MEX_intpoint_lat [deg], MEX_intpoint_angle [deg], TGO_intpoint_lon [deg], TGO_intpoint_lat [deg], TGO_intpoint_angle [deg] 
-138.435153590531, 19.375944439555663, 21.185480750959833, -27.729185606355852, 47.894326269953964, 62.754766050401926 
-139.34478057190276, 19.005725283638874, 21.186013146814712, -28.124318327481884, 48.2725986438485, 62.75047812473729 
-140.25280006019824, 18.636467385189512, 21.186535538661758, -28.5164398018344, 48.65361972785661, 62.74616659409452 
-141.1593027764148, 18.26826135866345, 21.187047779417068, -28.905494324995257, 49.03735133808064, 62.74183280512829 
-142.06437818830665, 17.90119718375243, 21.18754973411412, -29.29142373170443, 49.423755178921084, 62.73747813399383 
-142.968114479394, 17.53536422160508, 21.188041279919453, -29.67416722962083, 49.81279283897515, 62.733103985879964 
-143.87059851938312, 17.170851230358174, 21.18852230613354, -30.053661222227465, 50.20442578615666, 62.72871179450684 
-144.77191583587387, 16.807746379938152, 21.188992714177193, -30.42983912000992, 50.598615361993055, 62.72430302158786 
-145.67215058723949, 16.446137266094706, 21.189452417563388, -30.802631138956382, 50.995322775051555, 62.71987915625617 
-146.5713855365716, 16.086110923631097, 21.18990134185455, -31.17196408533753, 51.39450909344094, 62.71544171445622 
-147.46970202659088, 15.727753838797053, 21.19033942460559, -31.5377611256261, 51.79613523633105, 62.710992238300335 
-148.36717995543142, 15.371151960812947, 21.19076661529255, -31.89994154030626, 52.20016196442535, 62.706532295391085 
-149.2638977532148, 15.016390712495262, 21.1911828752272, -32.25842046020197, 52.606549869315884, 62.70206347810937 
-150.15993235933698, 14.663554999955167, 21.191588177457582, -32.61310858381942, 53.01525936164239, 62.69758740286905 
-151.0553592003981, 14.312729221344263, 21.191982506654757, -32.96391187404943, 53.42625065796928, 62.69310570933834 
-151.95025216871295, 13.963997274622415, 21.19236585898589, -33.31073123241054, 53.839483766284935, 62.688620059628654 
-152.84468360134613, 13.617442564325172, 21.192738241973828, -33.65346214882931, 54.254918470017984, 62.68413213745136 
-153.73872425962352, 13.273148007308873, 21.19309967434347, -33.99199432474991, 54.67251431045332, 62.67964364724293 
-154.6324433090776, 12.931196037454065, 21.193450185855095, -34.3262112671362, 55.09223056741832, 62.67515631325941 
-155.52590829979127, 12.591668609308519, 21.1937898171249, -34.655989850675184, 55.514026238095646, 62.67067187864051 
-156.41918514711068, 12.254647200653471, 21.194118619433002, -34.98119984520574, 55.93786001380229, 62.6661921044443 
-157.3123381127043, 11.920212813977452, 21.194436654519183, -35.30170340507802, 56.36369025455764, 62.66171876865317 
-158.20542978595125, 11.588445976844422, 21.194743994366647, -35.617354516792155, 56.79147496124224, 62.657253665151714 
-159.09852106564787, 11.259426741143708, 21.19504072097414, -35.92799840086444, 57.22117174512704, 62.65279860267757 
-159.99167114202766, 10.93323468121132, 21.19532692611669, -36.233470863420365, 57.65273779452682, 62.648355403745924 
-160.88493747909473, 10.609948890813751, 21.195602711095244, -36.533597592507476, 58.08612983830274, 62.643925903548485 
-161.77837579727756, 10.289647978986562, 21.195868186475806, -36.828193393552986, 58.52130410590671, 62.63951194882813 
-162.67204005641338, 9.97241006472248, 21.196123471818023, -37.117061357748725, 58.95821628362275, 62.635115396729944 
-163.5659824390813, 9.658312770504573, 21.19636869539394, -37.399991956422156, 59.39682146661924, 62.630738113629555 
-164.46025333430427, 9.3474332146826, 21.196603993897124, -37.67676205363252, 59.83707410637776, 62.626381973940305 
-165.35490132164816, 9.039848002691762, 21.196829512142603, -37.947133828305184, 60.27892795301094, 62.62204885889956 
-166.24997315574782, 8.73563321711557, 21.197045402758004, -38.21085359616461, 60.72233599191912, 62.61774065533596 
-167.1455137512973, 8.434864406595795, 21.197251825866285, -38.46765052053439, 61.167250374166194, 62.61345925441809 
-168.04156616854345, 8.137616573595055, 21.197448948760567, -38.71723519971513, 61.61362233987403, 62.60920655038634 
-168.93817159932803, 7.843964161019252, 21.197636945571393, -38.959298117106655, 62.06140213384275, 62.604984439268776 
-169.8353693537263, 7.553981037709105, 21.19781599692691, -39.193507938479605, 62.510538912498674, 62.60079481758197 
-170.73319684733477, 7.2677404828125525, 21.197986289606437, -39.419509638790515, 62.96098064115031, 62.596639581018756 
-171.63168958926312, 6.985315169051653, 21.198148016187826, -39.63692243863489, 63.41267398039197, 62.592520623123484 
-172.5308811708895, 6.706777144900092, 21.19830137468916, -39.8453375277999, 63.86556416033468, 62.58843983395637 
-173.43080325544167, 6.432197815689481, 21.19844656820517, -40.044315550359045, 64.31959484115548, 62.58439909874816 
-174.33148556846774, 6.161647923665509, 21.198583804538934, -40.23338382228432, 64.77470795824156, 62.58040029654645 
-175.23295588926487, 5.89519752701677, 21.198713295829304, -40.41203324856526, 65.2308435499537, 62.57644529885518 
-176.13524004333445, 5.63291597790224, 21.198835258174494, -40.579714902235, 65.68793956574142, 62.57253596826819 
-177.03836189593554, 5.374871899505426, 21.198949911252484, -40.73583622241386, 66.1459316520026, 62.56867415709882 
-177.94234334680945, 5.121133162145972, 21.199057477938574, -40.87975678237483, 66.6047529126821, 62.564861706006376 
-178.84720432614958, 4.8717668584820935, 21.199158183920677, -41.010783571583104, 67.06433364113892, 62.56110044262147 
-179.75296279189143, 4.626839277839781, 21.199252257312864, -41.128165727503884, 67.52460101926557, 62.557392180171064 
179.3403652716017, 4.386415879707399, 21.19933992826757, -41.231088643532956, 67.98547877920178, 62.55373871610504 
178.43276585338114, 4.150561266436779, 21.19942142858713, -41.31866736847126, 68.44688682222932, 62.55014183072573 
177.52422691420844, 3.919339155194831, 21.199496991335053, -41.38993920029843, 68.90874078854168, 62.54660328582152 
176.61473838322897, 3.6928123492119127, 21.199566850447486, -41.44385536232455, 69.37095157052846, 62.543124823306364 
175.7042921529497, 3.471042708376204, 21.199631240345578, -41.4792716327991, 69.83342476096195, 62.539708163866585 
174.79288207244863, 3.2540911192254973, 21.19969039554901, -41.49493777937912, 70.29606002598848, 62.53635500561628 
173.8805039387457, 3.0420174643905726, 21.199744550291417, -41.489485627112266, 70.7587503910585, 62.533067022762715 
172.9671554862661, 2.834880591546689, 21.199793938138065, -41.4614155623508, 71.22138142582115, 62.5298458642837 
172.05283637433115, 2.632738281931964, 21.199838791606304, -41.40908124483838, 71.6838303114912, 62.52669315261777 
171.13754817261392, 2.435647218493924, 21.199879341789416, -41.33067226566177, 72.14596477118543, 62.52361048236885 
170.22129434450062, 2.2436629537273935, 21.199915817984095, -41.22419444944596, 72.60764184011857, 62.52059941902714 
169.30408022830292, 2.056839877269157, 21.199948447322438, -41.08744745481994, 73.06870644822821, 62.517661497707174 
168.3859130162706, 1.875231183316714, 21.199977454408508, -40.917999277749104, 73.52898978261275, 62.51479822190462 
167.46680173135897, 1.6988888379400526, 21.200003060960228, -40.713157208187, 73.98830739095311, 62.5120110622738 
166.5467572017104, 1.5278635463572512, 21.20002548545704, -40.46993473269378, 74.4464569796393, 62.50930145542615 
165.62579203281464, 1.3622047202459238, 21.20004494279363, -40.18501381636097, 74.90321585141506, 62.50667080275225 
164.70392057731976, 1.2019604451639483, 21.20006164394044, -39.85470194047693, 75.35833791672592, 62.504120469268 
163.7811589024702, 1.0471774481538842, 21.20007579561112, -39.47488322447966, 75.81155020034011, 62.50165178248629 
162.85752475515633, 0.8979010656064147, 21.200087599937646, -39.04096293263945, 76.26254874993569, 62.499266031316075 
161.93303752456634, 0.7541752114586754, 21.200097254153267, -38.547804674625326, 76.71099383598448, 62.496964464989496 
161.0077182024381, 0.6160423458038904, 21.20010495028392, -37.989659681059486, 77.15650431230316, 62.49474829201847 
160.081589340917, 0.4835434439887138, 21.20011087484838, -37.360087710649196, 77.59865098420168, 62.49261867918241 
159.15467500803265, 0.3567179662747194, 21.200115208567585, -36.65186948508461, 78.03694880680256, 62.490576750547405 
158.2270007408151, 0.23560382814011158, 21.200118126083563, -35.856911141343524, 78.4708477111488, 62.48862358651908 
157.29859349608, 0.12023737129698098, 21.2001197956882, -34.96614216917867, 78.89972183277466, 62.486760222929256 
156.36948159891915, 0.010653335498811088, 21.200120379062398, -33.96940985148936, 79.32285690117489, 62.484987650158374 
155.4396946889417, -0.09311516878854059, 21.200120031025826, -32.85537560795486, 79.73943554708028, 62.48330681229392 
154.5092636643187, -0.19103668678028557, 21.200118899297618, -31.611422209175704, 80.14852031070727, 62.48171860632665 
153.5782206236929, -0.2830814447604236, 21.20011712426834, -30.223586028626897, 80.54903420881196, 62.48022388138498 
152.64659880602198, -0.369221374395449, 21.200114838783627, -28.676535858345375, 80.93973887274112, 62.47882343800868 
151.71443252843304, -0.4494301359079901, 21.200112167939572, -26.95362984744031, 81.3192105492131, 62.477518027463034 
150.78175712217214, -0.5236831400469543, 21.20010922889035, -25.03709512243467, 81.6858147226052, 62.47630835109367 
149.848608866742, -0.5919575687934819, 21.20010613066818, -22.908390240849915, 82.03768085024375, 62.475195059723426 
148.91502492232627, -0.6542323947450138, 21.200102974015927, -20.548826975586348, 82.37267978420914, 62.47417875309179 
147.9810432606067, -0.7104883991231352, 21.200099851232586, -17.94054047652304, 82.6884079438682, 62.473259979337485 
147.04670259408658, -0.7607081883543524, 21.200096846031812, -15.067896759951385, 82.98218417504235, 62.472439234525055 
146.11204230403806, -0.8048762091766647, 21.20009403341367, -11.919399359822668, 83.25106726119174, 62.47171696221566 
145.1771023671991, -0.8429787622287974, 21.200091479549837, -8.490083848704042, 83.49190367236208, 62.4710935530833 
144.24192328134882, -0.8750040140831072, 21.200089241682356, -4.784252449647285, 83.70141530940967, 62.47056934457597 
143.3065459898961, -0.9009420076874113, 21.200087368036098, -0.8182003540747137, 83.87633425574248, 62.47014462062323 
142.37101180562, -0.920784671185512, 21.200085897745033, 3.377640821920081, 84.01358444918318, 62.46981961138961 
141.4353623337041, -0.9345258250908448, 21.200084860792444, 7.757873369121485, 84.11049837883402, 62.4695944930747 
140.4996393942102, -0.9421611877923463, 21.200084277965075, 12.263298304258232, 84.16504250229774, 62.46946938776022 
139.56388494413855, -0.9436883793764211, 21.200084160821447, 16.824394022530495, 84.17601327544185, 62.46944436330369 
138.6281409992246, -0.9391069237539164, 21.200084511674124, 21.366793831272542, 84.14316325127777, 62.46951943327954 
137.6924495556222, -0.9284182490858176, 21.20008532358626, 25.81777588055615, 84.06722794601399, 62.46969455696732 
136.7568525116248, -0.9116256865064517, 21.200086580382123, 30.112404229084998, 83.94984692430124, 62.4699696393872 
135.82139158957526, -0.8887344671479285, 21.20008825667185, 34.19809132440437, 83.79339803642458, 62.47034453138226 
134.88610825811406, -0.859751717474513, 21.200090317890208, 38.03691491239525, 83.60078148513459, 62.47081902974838 
133.95104365491517, -0.8246864529405655, 21.20009272034944, 41.60571530803234, 83.37519460235703, 62.47139287741063 
133.01623851005525, -0.7835495699905345, 21.20009541130599, 44.89451411828096, 83.11993029167944, 62.472065763646526 
132.0817330701608, -0.7363538364242987, 21.200098329041214, 47.903994612800545, 82.83821816847924, 62.472837324355616 
131.14756702347304, -0.6831138801557229, 21.20010140295572, 50.64271334934125, 82.53311385960622, 62.4737071423751 
130.21377942596735, -0.6238461763969919, 21.200104553677473, 53.124505900275814, 82.2074323921858, 62.474674747841334 
129.28040862865967, -0.5585690333055647, 21.200107693183273, 55.366327949674144, 81.86371682210704, 62.47573961859625 
128.3474922062267, -0.4873025761348559, 21.200110724933683, 57.38660269736826, 81.5042321650611, 62.476901180638855 
127.41506688706153, -0.41006872993378285, 21.200113544021047, 59.204042298270224, 81.13097575039855, 62.478158808620506 
126.4831684848809, -0.32689120084424783, 21.20011603733044, 60.83686345059159, 80.7456970413671, 62.47951182638427 
125.5518318319932, -0.2377954560491111, 21.20011808371345, 62.302305791051005, 80.34992196153087, 62.480959507546665 
124.62109071433008, -0.1428087024267385, 21.200119554174396, 63.61636941721555, 79.94497846093402, 62.48250107612197 
123.69097780833762, -0.04195986397135936, 21.200120312068865, 64.79370310356688, 79.53202133798332, 62.48413570718772 
122.76152461981484, 0.06472044195874266, 21.20012021331421, 65.84759111188379, 79.1120552304445, 62.485862527591195 
121.83276142478125, 0.17719992950031382, 21.20011910661182, 66.79000090726075, 78.68595527830678, 62.48768061669508 
120.90471721244582, 0.29544467018436554, 21.20011683368082, 67.63166559886159, 78.25448532568424, 62.48958900716254 
119.97741963034265, 0.419419119806329, 21.200113229502847, 68.38218356276565, 77.81831373917517, 62.491586685780035 
119.05089493169089, 0.5490861461958878, 21.20010812257768, 69.05012391539456, 77.37802702989516, 62.49367259431684 
118.12516792502734, 0.6844070578138369, 21.200101335189327, 69.64313082755262, 76.93414151369826, 62.495845630420824 
117.20026192615298, 0.8253416331019973, 21.200092683682175, 70.16802259381902, 76.48711325442561, 62.498104648548676 
116.27619871242644, 0.9718481505110823, 21.20008197874695, 70.63088330039213, 76.03734652487077, 62.50044846093014 
115.3529984794291, 1.1238834191308202, 21.20006902571603, 71.03714617094082, 75.58520099979903, 62.50287583856472 
114.4306798000189, 1.2814028098460177, 21.20005362486768, 71.39166843632961, 75.1309978709759, 62.505385512249575 
113.50925958578173, 1.4443602869421317, 21.200035571738958, 71.69879802714551, 74.67502504927269, 62.50797617363781 
112.58875305088307, 1.6127084400839418, 21.200014657446737, 71.9624326363411, 74.21754159541076, 62.51064647632571 
111.66917367831341, 1.7863985165910088, 21.19999066901642, 72.18607181689929, 73.7587814996695, 62.5133950369674 
110.75053318851491, 1.9653804539345383, 21.199963389718075, 72.37286281570958, 73.29895691222397, 62.51622043641608 
109.83284151037059, 2.1496029123804874, 21.199932599409347, 72.52564083252146, 72.83826090968338, 62.519121220890106 
108.91610675452904, 2.339013307705161, 21.199898074884835, 72.64696435316586, 72.37686986968615, 62.52209590316302 
108.00033518903383, 2.533557843910444, 21.199859590231345, 72.7391461527942, 71.91494551382137, 62.52514296377545 
107.08553121721864, 2.733181545867276, 21.199816917188762, 72.80428050614735, 71.45263666941102, 62.528260852268524 
106.17169735782608, 2.9378282918174774, 21.199769825515794, 72.8442670829493, 70.99008079253974, 62.53144798843632 
105.2588342273009, 3.1474408456657614, 21.199718083360327, 72.860831950358, 70.52740528791348, 62.534702763596684 
104.34694052420585, 3.3619608889955335, 21.199661457633812, 72.85554605253738, 70.06472865545294, 62.53802354187854 
103.43601301570236, 3.5813290527442505, 21.199599714389166, 72.82984149050809, 69.60216148879384, 62.5414086615248 
102.52604652603563, 3.805484948475959, 21.19953261920179, 72.78502588362552, 69.13980734691916, 62.54485643620867 
101.61703392696037, 4.034367199191083, 21.199459937553062, 72.72229505714489, 68.67776351685319, 62.54836515636251 
100.70896613003933, 4.267913469615757, 21.199381435215948, 72.6427442680246, 68.21612168259449, 62.55193309051745 
99.80183208074607, 4.5060604959153485, 21.19929687864209, 72.54737815296802, 67.75496851316146, 62.55555848665275 
98.89561875429972, 4.748744114779382, 21.19920603534998, 72.43711955826538, 67.29438618069345, 62.55923957355256 
97.99031115315893, 4.995899291827483, 21.199108674313646, 72.31281738983698, 66.83445281793057, 62.562974562169664 
97.08589230610019, 5.247460149288735, 21.199004566351302, 72.17525360358677, 66.37524292303131, 62.566761646994166 
96.1823432688059, 5.503359992909077, 21.198893484513558, 72.02514944037961, 65.91682771853942, 62.5705990074254 
95.27964312588558, 5.7635313380444515, 21.198775204470614, 71.86317099632052, 65.45927547034077, 62.57448480914659 
94.37776899425577, 6.02790593489959, 21.198649504897837, 71.68993420724789, 65.00265177163041, 62.578417205499555 
93.4766960278019, 6.296414792875388, 21.198516167859513, 71.50600931619275, 64.54701979621379, 62.582394338859224 
92.57639742324855, 6.568988203989965, 21.19837497918984, 71.31192488378316, 64.09244052487465, 62.586414342005625 
91.6768444271642, 6.845555765341566, 21.198225728871023, 71.10817139398699, 63.63897294803836, 62.59047533949253 
90.77800634402801, 7.126046400583799, 21.19806821140786, 70.89520450102646, 63.18667424752893, 62.594575449011025 
89.87985054528879, 7.410388380386145, 21.197902226198188, 70.67344795761467, 62.7355999598514, 62.59871278274697 
88.98234247934711, 7.698509341855541, 21.197727577898895, 70.44329625973803, 62.285804123114566, 62.602885448730476 
88.08544568239529, 7.990336306896833, 21.19754407678696, 70.20511703893253, 61.83733940943972, 62.60709155217667 
87.189121790051, 8.285795699492827, 21.19735153911494, 69.95925322928443, 61.39025724446712, 62.611329196815944 
86.29333054972491, 8.584813361886408, 21.197149787460596, 69.70602503315203, 60.944607915371726, 62.61559648621281 
85.39802983366404, 8.88731456965022, 21.196938651070056, 69.44573170678495, 60.500440668625465, 62.619891525071516 
84.50317565261794, 9.193224045630906, 21.196717966194136, 69.17865318455863, 60.057803798593625, 62.62421242052805 
83.60872217007638, 9.502465972757735, 21.19648757641739, 68.90505155839027, 59.616744727922146, 62.62855728342628 
82.71462171703286, 9.814964005707065, 21.196247332979336, 68.62517242702205, 59.17731008055949, 62.63292422957794 
81.82082480723129, 10.130641281416445, 21.19599709508764, 68.33924612820739, 58.73954574815816, 62.63731138100473 
80.92728015285752, 10.449420428444174, 21.19573673022252, 68.04748886538883, 58.30349695051442, 62.64171686716176 
80.03393468064259, 10.771223575171712, 21.19546611443237, 67.75010373918442, 57.869208290630475, 62.64613882614088 
79.14073354834798, 11.095972356848842, 21.195185132619837, 67.44728169287865, 57.4367238049162, 62.65057540585297 
78.24762016160952, 11.423587921482554, 21.194893678818147, 67.13920238012808, 57.00608700899154, 62.65502476518865 
77.35453619111983, 11.75399093457318, 21.194591656457355, 66.82603496221967, 56.57734093949777, 62.659485075155246 
76.46142159013608, 12.087101582702273, 21.194278978619973, 66.50793884145033, 56.15052819228363, 62.663954519990355 
75.56821461230349, 12.422839575979172, 21.193955568285816, 66.18506433651415, 55.72569095729085, 62.66843129824998 
74.67485182979192, 12.761124149354016, 21.193621358565622, 65.85755330518003, 55.302871050430426, 62.67291362387121 
73.78126815174734, 13.101874062807335, 21.19327629292315, 65.5255397190059, 54.88210994270948, 62.677399727207735 
72.88739684306647, 13.445007600427493, 21.192920325385494, 65.18915019435923, 54.463448786841774, 62.68188785603823 
71.99316954350827, 13.790442568388782, 21.192553420741177, 64.84850448358996, 54.046928441550726, 62.686376276545936 
71.09851628716237, 14.138096291844823, 21.192175554725974, 64.50371592982317, 53.63258949375242, 62.69086327426953 
70.20336552230056, 14.487885610753153, 21.191786714195985, 64.15489188850292, 53.22047227878722, 62.6953471550238 
69.30764413164334, 14.839726874648603, 21.191386897287813, 63.80213411851657, 52.81061689885149, 62.699826245789914 
68.41127745308115, 15.193535936384393, 21.19097611356565, 63.44553914546018, 52.40306323976619, 62.70429889557471 
