# MEX_intpoint_lon [deg], MEX_intpoint_lat [deg], MEX_intpoint_angle [deg], TGO_intpoint_lon [deg], TGO_intpoint_lat [deg], TGO_intpoint_angle [deg] 
-139.07510474759422, 19.534273284722406, 21.608038323523488, -27.590840771981977, 42.90756341180819, 62.85874131516088 
-139.9712380781625, 19.14073315744735, 21.608620245064802, -27.890579501155038, 43.31089382864414, 62.854124116004876 
-140.86574708358518, 18.748278746240285, 21.609190648654245, -28.185620879010514, 43.716844889844964, 62.84947418157305 
-141.75873216366512, 18.35700323993198, 21.60974937442283, -28.47586823401502, 44.12536530940862, 62.84479297074192 
-142.65029218251055, 17.966999171274587, 21.61029627645568, -28.76122092789865, 44.536403383353445, 62.84008198295246 
-143.54052444483816, 17.578358438767147, 21.610831222807153, -29.041574124320285, 44.949906966033616, 62.83534275769316 
-144.42952467344418, 17.1911723275416, 21.61135409549924, -29.31681854449321, 45.36582344443491, 62.830576873934085 
-145.31738698770212, 16.805531529273022, 21.611864790503063, -29.58684020889127, 45.78409971032922, 62.825785949512856 
-146.2042038829555, 16.4215261610794, 21.61236321770371, -29.851520164091387, 46.204682130157074, 62.82097164047259 
-147.09006621068568, 16.039245783378956, 21.612849300848353, -30.110734193737095, 46.62751651249529, 62.81613564035181 
-147.97506315934294, 15.658779416674122, 21.6133229774779, -30.36435251253354, 47.05254807295559, 62.81127967942713 
-148.85928223573944, 15.280215557233767, 21.61378419884212, -30.612239442102034, 47.47972139634586, 62.80640552390898 
-149.74280924691155, 14.903642191646503, 21.6142329297986, -30.854253067436265, 47.90898039591182, 62.80151497509053 
-150.62572828236833, 14.52914681021943, 21.614669148695565, -31.090244872607965, 48.34026826946083, 62.79660986845103 
-151.50812169665102, 14.156816419198663, 21.6150928472387, -31.32005935426961, 48.77352745215187, 62.7916920727133 
-152.39007009213822, 13.7867375517887, 21.61550403034241, -31.54353361139405, 49.20869956571743, 62.786763488856764 
-153.27165230203747, 13.418996277949866, 21.615902715965415, -31.760496909575178, 49.645725363861445, 62.78182604908604 
-154.15294537351497, 13.053678212953633, 21.616288934931173, -31.970770218090433, 50.08454467355564, 62.776881715756346 
-155.0340245509201, 12.69086852467768, 21.616662730733367, -32.17416571779291, 50.525096331931096, 62.77193248025626 
-155.91496325907113, 12.330651939623307, 21.617024159326522, -32.37048627776029, 50.96731811843507, 62.76698036184857 
-156.79583308657496, 11.97311274763946, 21.61737328890234, -32.5595248984764, 51.411146681893364, 62.762027406470345 
-157.6767037691614, 11.61833480533878, 21.617710199651818, -32.74106411916084, 51.85651746208589, 62.75707568549288 
-158.55764317301933, 11.266401538192639, 21.61803498351368, -32.91487538669209, 52.30336460540748, 62.75212729444291 
-159.43871727812916, 10.91739594129309, 21.618347743909293, -33.08071838338844, 52.75162087414718, 62.74718435168545 
-160.31999016159304, 10.571400578771675, 21.618648595464535, -33.238340310721135, 53.201217548876265, 62.742248997070256 
-161.20152398097, 10.228497581865852, 21.618937663718974, -33.38747512583342, 53.652084323388586, 62.737323390542116 
-162.0833789576311, 9.888768645625738, 21.61921508482274, -33.527842727529816, 54.10414919158598, 62.73240971071684 
-162.96561336015404, 9.552295024255345, 21.61948100522149, -33.659148088181915, 54.55733832564461, 62.72751015342381 
-163.8482834877845, 9.21915752508389, 21.619735581329923, -33.78108032777138, 55.01157594473771, 62.72262693021638 
-164.73144365399668, 8.889436501164921, 21.619978979194194, -33.89331172606035, 55.46678417352238, 62.71776226685187 
-165.61514617019085, 8.563211842502213, 21.620211374143835, -33.99549666864563, 55.92288288952502, 62.71291840174181 
-166.49944132957216, 8.240562965903878, 21.62043295043348, -34.08727052241926, 56.3797895584795, 62.708097584374364 
-167.38437739125968, 7.921568803467475, 21.62064390087497, -34.16824843572978, 56.83741905658498, 62.70330207371047 
-168.2700005646806, 7.6063077897014875, 21.620844426460277, -34.2380240583196, 57.29568347855422, 62.69853413655454 
-169.15635499430832, 7.294857847290359, 21.621034735975783, -34.29616817591347, 57.75449193021953, 62.69379604590232 
-170.04348274480907, 6.987296371512552, 21.62121504560841, -34.34222725415908, 58.21375030434997, 62.68909007926602 
-170.93142378666613, 6.683700213323501, 21.62138557854405, -34.3757218864862, 58.673361038210835, 62.68441851698014 
-171.82021598235409, 6.384145661117809, 21.621546564559008, -34.39614514036945, 59.13322285126263, 62.67978364048804 
-172.70989507314061, 6.088708421187372, 21.621698239604736, -34.40296079647119, 59.59323046125369, 62.6751877306118 
-173.60049466659703, 5.797463596894817, 21.62184084538664, -34.39560147522789, 60.053274276805254, 62.670633065806875 
-174.49204622490143, 5.510485666584514, 21.6219746289374, -34.373466645654354, 60.513240064421566, 62.66612192040357 
-175.3845790540226, 5.227848460255799, 21.622099842185317, -34.335920511511624, 60.97300858768131, 62.66165656283644 
-176.27812029387476, 4.949625135026443, 21.622216741518407, -34.28228977055916, 61.43245521617777, 62.65723925386435 
-177.1726949095361, 4.675888149416877, 21.62232558734464, -34.21186124344432, 61.89144950157865, 62.65287224478224 
-178.06832568362682, 4.40670923648894, 21.622426643649018, -34.12387936993745, 62.349854717970054, 62.648557775627054 
-178.965033209943, 4.142159375875954, 21.622520177548065, -34.017543571780266, 62.80752736343749, 62.64429807337939 
-179.86283588844412, 3.882308764744049, 21.6226064588422, -33.89200548347295, 63.26431661962247, 62.64009535016285 
179.23825007830533, 3.6272267877278037, 21.62268575956674, -33.746366055003016, 63.72006376578088, 62.63595180144322 
178.33821068714178, 3.3769819858863936, 21.622758353542018, -33.57967253395357, 64.17460154366584, 62.63186960422912 
177.43703413465602, 3.1316420247299037, 21.62282451592322, -33.39091533879237, 64.62775346937043, 62.62785091527641 
176.53471081579445, 2.8912736613683285, 21.622884522750564, -33.17902484063562, 65.07933308810902, 62.623897869298084 
175.63123332061096, 2.6559427108392866, 21.622938650500352, -32.94286807764278, 65.5291431678004, 62.62001257718187 
174.7265964290716, 2.4257140116735174, 21.62298717563756, -32.68124543470704, 65.97697482726562, 62.61619712421722 
173.82079710381834, 2.200651390760376, 21.62303037417054, -32.392887331593315, 66.42260659488973, 62.61245356833421 
172.9138344807987, 1.9808176275787348, 21.623068521208257, -32.07645097551041, 66.86580339375217, 62.608783938355636 
172.00570985767283, 1.7662744178615706, 21.623101890520942, -31.73051724972172, 67.30631544954608, 62.60519023226506 
171.09642667991224, 1.5570823367655855, 21.62313075410449, -31.353587828670502, 67.74387711812882, 62.60167441549225 
170.18599052450872, 1.3533008016199604, 21.62315538174923, -30.94408263274928, 68.17820563033958, 62.59823841921833 
169.27440908121673, 1.1549880343309618, 21.623176040613725, -30.500337762826767, 68.60899975285426, 62.5948841387024 
168.36169213125817, 0.9622010235219284, 21.62319299480405, -30.020604086524305, 69.0359383654206, 62.59161343163177 
167.44785152342325, 0.7749954864901868, 21.623206504959178, -29.503046685532485, 69.45867895692712, 62.58842811649776 
166.53290114750905, 0.5934258310649937, 21.62321682784296, -28.945745416419147, 69.87685604554329, 62.58532997099879 
165.61685690504234, 0.41754511745231104, 21.62322421594327, -28.346696886658517, 70.2900795317671, 62.58232073047298 
164.69973667724193, 0.24740502015424895, 21.62322891707891, -27.703818202970407, 70.69793299779846, 62.57940208636193 
163.78156029018314, 0.08305579005240238, 21.62323117401456, -27.014952909983634, 71.09997197240632, 62.576575684707606 
162.8623494771355, -0.07545378325436426, 21.623231224084627, -26.27787960252543, 71.49572218756533, 62.573843124684174 
161.94212783805224, -0.22807640876610302, 21.623229298826157, -25.490323762298033, 71.88467786179724, 62.57120595716672 
161.02092079620127, -0.37476633095962497, 21.623225623621515, -24.6499734358119, 72.26630005553434, 62.568665683338295 
160.0987555519348, -0.5154793661352073, 21.623220417351227, -23.754499429917242, 72.64001515605163, 62.566223753337255 
159.17566103360514, -0.6501729381394029, 21.62321389205739, -22.801580746616416, 73.00521356363033, 62.56388156494666 
158.25166784564473, -0.7788061133711822, 21.623206252618203, -21.788935999879225, 73.36124866651572, 62.56164046232699 
157.32680821383715, -0.9013396349793401, 21.623197696433984, -20.71436154070303, 73.7074362096081, 62.55950173479445 
156.40111592781778, -1.0177359561599348, 21.62318841312508, -19.575776946244666, 74.04305418007674, 62.55746661564528 
155.47462628085185, -1.1279592724637348, 21.6231785842421, -18.371278385121574, 74.36734335122301, 62.55553628102909 
154.54737600694875, -1.2319755530252186, 21.62316838298882, -17.09920013251306, 74.67950864246772, 62.553711848871004 
153.6194032153815, -1.3297525706267144, 21.623157973958193, -15.758184153871008, 74.9787214662531, 62.55199437784547 
152.69074732269095, -1.4212599305134253, 21.623147512881747, -14.347257186204885, 75.26412323927109, 62.55038486640199 
151.76144898226397, -1.5064690978778312, 21.623137146392693, -12.865914109942429, 75.53483023250723, 62.54888425184441 
150.8315500115854, -1.5853534239349105, 21.62312701180313, -11.314205624900634, 75.78993991843836, 62.54749340946509 
149.9010933172729, -1.6578881705129853, 21.623117236895588, -9.692827344502712, 76.02853894053648, 62.54621315173507 
148.97012281801312, -1.7240505330886542, 21.623107939729195, -8.003206454904742, 76.24971277661567, 62.5450442275506 
148.0386833655268, -1.7838196621982632, 21.623099228460738, -6.247581135916282, 76.45255709126712, 62.54398732153827 
147.1068206636992, -1.8371766831626963, 21.623091201180795, -4.429067129540174, 76.63619067348638, 62.54304305341844 
146.17458118601957, -1.8841047140667924, 21.623083945765337, -2.5517053200079056, 76.79976973647362, 62.54221197742831 
145.24201209148143, -1.9245888819397023, 21.62307753974267, -0.6204841203867425, 76.94250322420501, 62.54149458180569 
144.30916113910212, -1.9586163370873646, 21.623072050176248, 1.3586690036866642, 77.06366863466631, 62.54089128833353 
143.3760766012264, -1.986176265533974, 21.623067533563304, 3.378931299907256, 77.16262774735952, 62.5404024519461 
142.44280717578388, -2.0072598995345436, 21.62306403574946, 5.432666245000071, 77.23884155000839, 62.54002836039756 
141.50940189767564, -2.021860526126594, 21.623061591859496, 7.511542680170877, 77.2918836134535, 62.53976923399286 
140.57591004946832, -2.02997349369487, 21.623060226244267, 9.60668845161056, 77.32145117850712, 62.539625225381684 
139.64238107157846, -2.0315962165289583, 21.62305995244394, 11.708872403470943, 77.32737330148291, 62.53959641941582 
138.70886447213076, -2.02672817735985, 21.623060773167577, 13.808705884289395, 77.30961555456672, 62.53968283306958 
137.7754097366767, -2.0153709278676275, 21.623062680289042, 15.896852987470224, 77.2682809813413, 62.539884415423955 
136.84206623795953, -1.9975280871587664, 21.62306565485922, 17.964237855046232, 77.20360724575329, 62.540201047714305 
135.9088831459125, -1.9732053382176742, 21.623069667134697, 20.00223767520589, 77.11596015786698, 62.54063254344154 
134.97590933807518, -1.942410422343405, 21.623074676622622, 22.002851449121312, 77.00582398388246, 62.54117864854641 
134.0431933106111, -1.9051531315885533, 21.623080632141903, 23.958836961475363, 76.87378912678876, 62.541839041647094 
133.1107830901078, -1.8614452992234898, 21.623087471900508, 25.86381130312507, 76.72053788106135, 62.5426133343397 
132.17872614633575, -1.8113007882550003, 21.623095123588907, 27.712313353716212, 76.54682901326751, 62.54350107156079 
131.24706930613883, -1.7547354780342106, 21.62310350448931, 29.499829455916093, 76.35348190345282, 62.544501732012 
130.31585866862417, -1.691767248994453, 21.62311252160086, 31.22278581194946, 76.1413609108471, 62.545614728646285 
129.38513952181268, -1.622415965564936, 21.62312207178034, 32.87851274243019, 75.911360517732, 62.54683940921431 
128.45495626090536, -1.5467034573116376, 21.62313204189837, 34.46518682822467, 75.6643916747792, 62.54817505687139 
127.5253523083136, -1.4646534983615367, 21.62314230901081, 35.98175717264273, 75.40136963599693, 62.54962089084337 
126.5963700355934, -1.3762917851712013, 21.6231527405452, 37.42786170543621, 75.12320344456751, 62.55117606715082 
125.66805068741532, -1.2816459127052746, 21.623163194501917, 38.80373876343312, 74.83078712114168, 62.55283967939082 
124.74043430769379, -1.1807453490941862, 21.623173519669862, 40.110138285009, 74.52499251829393, 62.55461075957504 
123.81355966798908, -1.0736214088447593, 21.62318355585633, 41.34823598400856, 74.20666374006235, 62.556488279023114 
122.88746419828664, -0.960307224680482, 21.623193134130762, 42.519552926789316, 73.87661298246951, 62.55847114931011 
121.96218392024836, -0.8408377180915539, 21.62320207708215, 43.625882092074484, 73.53561762671629, 62.56055822326717 
121.03775338302033, -0.7152495686776393, 21.623210199089584, 44.66922278412798, 73.18441840768293, 62.56274829603356 
120.11420560167088, -0.5835811823687093, 21.623217306605728, 45.65172320755047, 72.82371848265859, 62.56504010615906 
119.19157199832324, -0.44587265861143177, 21.6232231984528, 46.575631091649925, 72.45418323536117, 62.567432336755516 
118.26988234603617, -0.30216575661041806, 21.62322766613069, 47.44325195830358, 72.07644066533442, 62.56992361669555 
117.34916471547514, -0.15250386071498043, 21.623230494136685, 48.25691443887758, 71.69108223037053, 62.57251252185728 
116.42944542440772, 0.003068054956910236, 21.623231460296623, 49.01894194127959, 71.2986640279516, 62.575197576413515 
115.51074899004453, 0.16450346256497161, 21.623230336106715, 49.73162992702096, 70.89970821961411, 62.577977254163564 
114.59309808423924, 0.331754317170498, 21.623226887085984, 50.397228062297174, 70.49470461883271, 62.58084997990625 
113.67651349154966, 0.504771093844965, 21.623220873138393, 51.017926541740046, 70.08411237805254, 62.58381413085221 
112.76101407015342, 0.683502825170702, 21.623212048924643, 51.59584593699554, 69.66836172367385, 62.586868038073966 
111.84661671560215, 0.8678971390417268, 21.62320016424273, 52.13302998585915, 69.24785569908737, 62.5900099879916 
110.93333632738886, 1.0579002966736362, 21.623184964417167, 52.63144080502481, 68.82297188535988, 62.59323822389286 
110.02118577829606, 1.2534572307325094, 21.62316619069597, 53.09295607622409, 68.39406407703109, 62.59655094748505 
109.11017588648225, 1.454511583494465, 21.623143580655178, 53.51936781884474, 67.9614638968854, 62.599946320477514 
108.20031539025882, 1.6610057449488027, 21.623116868610268, 53.91238242035972, 67.52548233870598, 62.60342246619231 
107.29161092550058, 1.8728808907599475, 21.623085786033844, 54.273621648248195, 67.08641123108609, 62.60697747120166 
106.38406700562795, 2.0900770200052157, 21.62305006197919, 54.60462441329101, 66.64452461854472, 62.610609386989516 
105.47768600409192, 2.312532992607911, 21.623009423509053, 54.90684909430817, 66.20008005862363, 62.614316231636096 
104.57246813928785, 2.5401865663875225, 21.622963596129136, 55.1816762689308, 65.7533198354696, 62.61809599152279 
103.66841146181855, 2.772974433651779, 21.622912304225625, 55.430411724363765, 65.30447209174726, 62.62194662305556 
102.76551184402382, 3.0108322572575963, 21.622855271506367, 55.65428964684187, 64.8537518816814, 62.625866054405336 
101.86376297168846, 3.25369470607122, 21.622792221444893, 55.854475909178774, 64.40136214867697, 62.62985218726256 
100.96315633783806, 3.5014954897607664, 21.622722877726893, 56.03207139298902, 63.94749463137686, 62.63390289860465 
100.06368123852936, 3.754167392857134, 21.622646964698514, 56.18811529633344, 63.4923307022481, 62.6380160424738 
99.16532477053894, 4.011642308022878, 21.622564207815707, 56.32358838914905, 63.03604214287739, 62.64218945176367 
98.26807183085309, 4.273851268471326, 21.622474334094395, 56.43941618827792, 62.57879186014821, 62.64642094001229 
97.3719051178596, 4.540724479481749, 21.622377072560496, 56.53647203155805, 62.12073454738415, 62.650708303199934 
96.47680513414277, 4.8121913489594235, 21.622272154699505, 56.61558003658331, 61.662017294406525, 62.65504932154937 
95.58275019078094, 5.088180516992764, 21.62215931490483, 56.67751793464074, 61.20278015027955, 62.6594417613268 
94.68971641304842, 5.36861988436278, 21.62203829092443, 56.72301977420998, 60.7431566423206, 62.66388337664176 
93.79767774742143, 5.653436639963497, 21.62190882430513, 56.75277849144551, 60.28327425474328, 62.6683719112434 
92.90660596979218, 5.942557287094836, 21.621770660834034, 56.76744834741498, 59.823254870088135, 62.672905100311915 
92.01647069479377, 6.235907668592786, 21.621623550976416, 56.76764723366114, 59.36321517638121, 62.67748067224296 
91.12723938614228, 6.533412990764765, 21.62146725030957, 56.75395884900228, 58.90326704275209, 62.68209635042306 
90.23887736790458, 6.834997846100727, 21.62130151995207, 56.72693475146993, 58.44351786604118, 62.68674985499436 
89.35134783660207, 7.140586234733926, 21.62112612698773, 56.687096289979245, 57.98407089073283, 62.69143890460692 
88.46461187406508, 7.450101584627671, 21.620940844883968, 56.634936420794915, 57.525025504368834, 62.696161218156554 
87.5786284609544, 7.763466770467476, 21.620745453903726, 56.57092141414058, 57.066477510424846, 62.700914516506884 
86.6933544908718, 8.080604131240408, 21.620539741510616, 56.495492456446115, 56.60851938047217, 62.70569652419328 
85.80874478498316, 8.401435486486196, 21.620323502766734, 56.40906715376198, 56.15124048729764, 62.71050497110772 
84.92475210708471, 8.725882151207008, 21.620096540722482, 56.3120409418229, 55.694727320516414, 62.71533759416245 
84.04132717904444, 9.053864949425298, 21.619858666798066, 56.204788408132615, 55.23906368608372, 62.72019213893076 
83.15841869655765, 9.385304226381233, 21.61960970115598, 56.087664531285995, 54.78433089099445, 62.72506636126393 
82.27597334515958, 9.720119859363578, 21.619349473064236, 55.96100584255593, 54.33060791435029, 62.729958028882045 
81.39393581644293, 10.058231267170036, 21.619077821249537, 55.825131514561704, 53.877971565874226, 62.73486492293791 
80.51224882443405, 10.399557418194659, 21.6187945942402, 55.68034438161179, 53.426496632861564, 62.73978483955199 
79.63085312208635, 10.744016837142523, 21.61849965069822, 55.52693189608116, 52.97625601647162, 62.744715591317465 
78.74968751785616, 11.091527610372932, 21.6181928597401, 55.36516702495028, 52.52732085818856, 62.74965500877391 
77.86868889233052, 11.442007389874894, 21.617874101245995, 55.1953090903994, 52.079760657208745, 62.7546009418482 
76.98779221488458, 11.795373395879604, 21.61754326615671, 55.01760455812393, 51.63364337944871, 62.75955126126147 
76.10693056034995, 12.151542418116883, 21.617200256758228, 54.83228777681474, 51.18903555880818, 62.76450385990088 
75.22603512568415, 12.510430815723563, 21.616844986953407, 54.63958167203307, 50.74600239126993, 62.769456654155114 
74.34503524663594, 12.871954515813556, 21.61647738252029, 54.43969839750497, 50.3046078223689, 62.77440758521258 
73.46385841440896, 13.236029010720848, 21.6160973813569, 54.232839946664484, 49.86491462851797, 62.77935462032084 
72.58243029233279, 13.602569353927635, 21.615704933712085, 54.01919872708955, 49.42698449263803, 62.78429575400672 
71.70067473255725, 13.97149015469175, 21.615300002402012, 53.798958100299046, 48.990878074501225, 62.78922900925602 
70.8185137927935, 14.342705571388366, 21.614882563012195, 53.57229288921388, 48.5566550761639, 62.79415243865185 
69.93586775313213, 14.716129303582576, 21.614452604084583, 53.339369855429524, 48.124374302833004, 62.7990641254705 
69.05265513297681, 15.091674582850592, 21.614010127289543, 53.100348148301535, 47.69409371948282, 62.80396218473472 
