# MEX_intpoint_lon [deg], MEX_intpoint_lat [deg], MEX_intpoint_angle [deg], TGO_intpoint_lon [deg], TGO_intpoint_lat [deg], TGO_intpoint_angle [deg] 
-138.92136245904723, 19.497091893301512, 21.504306565382986, -27.670910825683013, 44.14970068100208, 62.83239092170379 
-139.82086350280775, 19.109184816931002, 21.50487631039438, -27.991578792550328, 44.54786186123284, 62.82783130176593 
-140.71874234819563, 18.722332679204936, 21.505434916191085, -28.307896586404677, 44.948691938049514, 62.823241222974886 
-141.61509705716097, 18.336628098426832, 21.50598222603788, -28.619774550442575, 45.35214306190558, 62.81862212374071 
-142.5100242261726, 17.9521630407619, 21.506518096694187, -28.92711926309068, 45.758167045603656, 62.81397548028928 
-143.40361896052767, 17.569028840684656, 21.507042398429387, -29.229833311147726, 46.16671534541818, 62.80930280615539 
-144.29597484990288, 17.18731622055006, 21.50755501502182, -29.527815049521053, 46.577739040472046, 62.80460565163037 
-145.18718394500874, 16.807115309250758, 21.508055843741516, -29.820958346602243, 46.99118881025955, 62.799885603164554 
-146.0773367352203, 16.42851565992471, 21.508544795316848, -30.10915231425033, 47.40701491019994, 62.79514428272485 
-146.9665221270656, 16.0516062666801, 21.509021793884934, -30.392281021267596, 47.82516714509425, 62.79038334710728 
-147.85482742346326, 15.67647558030576, 21.50948677692609, -30.67022318916327, 48.24559484034766, 62.78560448720589 
-148.7423383036098, 15.3032115229377, 21.50993969518247, -30.94285186890278, 48.66824681080694, 62.78080942723703 
-149.6291388034252, 14.931901501653796, 21.510380512560875, -31.210034097233518, 49.093071327048456, 62.77599992392072 
-150.51531129647486, 14.562632420970324, 21.510809206020017, -31.471630531063635, 49.52001607893813, 62.77117776561886 
-151.40093647529406, 14.195490694215794, 21.511225765442376, -31.727495058244333, 49.94902813626719, 62.766344771431 
-152.28609333304914, 13.830562253758716, 21.511630193490905, -31.97747438297076, 50.38005390625041, 62.76150279024851 
-153.17085914547727, 13.467932560067924, 21.512022505450663, -32.22140758386833, 50.81303908765273, 62.756653699767256 
-154.0553094530558, 13.107686609584778, 21.512402729055726, -32.459125642671054, 51.24792862128902, 62.751799405460375 
-154.93951804335748, 12.749908941388783, 21.512770904301647, -32.69045094122407, 51.68466663661675, 62.74694183951065 
-155.82355693355797, 12.394683642638748, 21.5131270832436, -32.91519672435271, 52.12319639411558, 62.74208295970457 
-156.70749635306657, 12.042094352773738, 21.513471329780614, -33.13316652593539, 52.5634602231176, 62.737224748288014 
-157.59140472626044, 11.692224266458817, 21.51380371942615, -33.344153555294085, 53.00539945472035, 62.73236921078474 
-158.47534865530756, 11.345156135262425, 21.514124339065354, -33.547940040773824, 53.44895434937838, 62.72751837477876 
-159.3593929030724, 11.000972268053454, 21.51443328669933, -33.74429652712066, 53.89406401873033, 62.72267428866144 
-160.2436003761021, 10.65975453010751, 21.514730671176682, -33.93298112298287, 54.34066634117371, 62.71783902034411 
-161.12803210770062, 10.32158434091362, 21.51501661191292, -34.11373869455271, 54.788697870652754, 62.71301465593789 
-162.0127472411015, 9.986542670673668, 21.515291238597825, -34.2863000010339, 55.238093738070454, 62.70820329840115 
-162.8978030127581, 9.654710035489131, 21.515554690891406, -34.45038076726122, 55.688787544676764, 62.7034070661563 
-163.7832547357748, 9.326166491230657, 21.515807118108707, -34.60568068841266, 56.14071124672051, 62.698628091676795 
-164.66915578350896, 9.000991626088304, 21.516048678893934, -34.75188236133981, 56.593795030579074, 62.6938685200457 
-165.55555757337908, 8.679264551801614, 21.516279540884444, -34.88865013659818, 57.04796717750084, 62.689130507487235 
-166.44250955091906, 8.361063893571014, 21.516499880364744, -35.015628884784434, 57.503153917005754, 62.684416219872496 
-167.3300591741254, 8.046467778653492, 21.516709881911375, -35.13244267028324, 57.959279267891795, 62.679727831200594 
-168.21825189814726, 7.735553823647995, 21.516909738028783, -35.23869332499353, 58.41626486568549, 62.67506752205713 
-169.107131160375, 7.428399120477816, 21.517099648776895, -35.33395891404206, 58.87402977525447, 62.67043747805077 
-169.9967383659879, 7.125080221079494, 21.51727982139074, -35.41779208490812, 59.33249028716601, 62.66583988822985 
-170.8871128740256, 6.825673120810074, 21.517450469892776, -35.48971829077777, 59.79155969622775, 62.66127694348075 
-171.77829198405072, 6.530253240587119, 21.51761181469822, -35.54923387833015, 60.25114806048256, 62.65675083490883 
-172.67031092347673, 6.238895407777923, 21.517764082214143, -35.59580402953942, 60.71116193874891, 62.65226375220431 
-173.5632028356362, 5.951673835857218, 21.517907504432664, -35.62886054646979, 61.171504104597595, 62.64781788199428 
-174.4569987686689, 5.668662102855396, 21.51804231851891, -35.64779946746499, 61.632073234434905, 62.64341540618261 
-175.35172766531272, 5.389933128621521, 21.518168766394115, -35.65197850261484, 62.09276356711944, 62.63905850027946 
-176.24741635368173, 5.115559150928694, 21.518287094314694, -35.640714275950515, 62.553464532272095, 62.63474933172208 
-177.14408953911905, 4.84561170045179, 21.51839755244747, -35.61327936152253, 63.01406034414605, 62.630490058188684 
-178.04176979721458, 4.580161574650701, 21.518500394441958, -35.568899100404984, 63.47442955760285, 62.626282825907005 
-178.94047756807782, 4.31927881059504, 21.518595877000042, -35.50674818581888, 63.934444582392636, 62.622129767959485 
-179.84023115195797, 4.063032656769376, 21.51868425944369, -35.42594700406743, 64.3939711515582, 62.61803300258689 
179.25895329369456, 3.8114915439010093, 21.5187658032813, -35.32555771994366, 64.8528677393769, 62.613994631491934 
178.35706175563286, 3.564723054855303, 21.518840771773178, -35.20458009685126, 65.31098492381952, 62.61001673814506 
177.45408236459073, 3.3227938936468484, 21.51890942949676, -35.06194704426115, 65.76816468804645, 62.60610138609401 
176.55000539333898, 3.085769853617535, 21.518972041912168, -34.89651988853708, 66.22423965498265, 62.602250617279104 
175.64482325292983, 2.8537157848359, 21.519028874928615, -34.70708336789715, 66.67903224852071, 62.59846645035602 
174.73853048703788, 2.6266955607749045, 21.51908019447225, -34.49234035869165, 67.1323537744101, 62.59475087902823 
173.83112376431032, 2.404772044328541, 21.51912626605606, -34.25090634871704, 67.58400341341377, 62.59110587039037 
172.9226018686393, 2.188007053230298, 21.51916735435227, -33.98130368449605, 68.03376711887793, 62.58753336328503 
172.0129656872743, 1.9764613249396, 21.519203722767998, -33.68195563400244, 68.48141641049592, 62.584035266674576 
171.1022181966941, 1.7701944810649954, 21.51923563302445, -33.35118032499998, 68.9267070557996, 62.58061345802975 
170.19036444616412, 1.5692649913954189, 21.519263344740537, -32.98718464296669, 69.36937763083864, 62.57726978173713 
169.27741153890628, 1.3737301376136146, 21.519287115021143, -32.588058202630506, 69.8091479516873, 62.57400604752711 
168.36336861081736, 1.183645976767993, 21.51930719805081, -32.15176754479002, 70.24571736895068, 62.57082402892432 
167.44824680667406, 0.9990673045813989, 21.519323844693236, -31.676150756860817, 70.67876291845987, 62.567725461722446 
166.5320592537712, 0.8200476186775814, 21.5193373020973, -31.15891277318925, 71.10793732301029, 62.56471204248485 
165.6148210329446, 0.6466390818076366, 21.51934781330978, -30.597621681448484, 71.53286684252538, 62.561785427073204 
164.69654914693822, 0.4788924851606095, 21.5193556168957, -29.98970644626504, 71.95314897367132, 62.55894722920573 
163.77726248608187, 0.316857211843776, 21.51936094656652, -29.332456562376837, 72.36835000503375, 62.55619901904662 
162.85698179125373, 0.16058120061930203, 21.519364030816728, -28.623024268477316, 72.77800244087047, 62.55354232182864 
161.93572961411064, 0.010110909984777964, 21.519365092569377, -27.858430090048323, 73.18160231562642, 62.550978616510264 
161.01353027457654, -0.13450871731397462, 21.51936434883093, -27.03557263415003, 73.57860643334544, 62.54850933446935 
160.0904098155899, -0.2732342892493705, 21.519362010355927, -26.151243728341974, 73.96842958139163, 62.546135858234564 
159.1663959551185, -0.4060239988690247, 21.51935828132197, -25.20215017336813, 74.35044178706431, 62.54385952025628 
158.24151803546042, -0.5328376579548879, 21.51935335901536, -24.18494355391126, 74.72396570926877, 62.54168160171879 
157.31580696985935, -0.6536367298966892, 21.51934743352777, -23.096259706085373, 75.08827428575935, 62.539603331394545 
156.38929518647168, -0.76838436169267, 21.519340687464588, -21.932769548418165, 75.44258878967887, 62.537625884542805 
155.462016569733, -0.8770454149920025, 21.519333295664957, -20.69124300855884, 75.78607748676573, 62.53575038185301 
154.5340063991814, -0.9795864960945109, 21.51932542493424, -19.368627672746562, 76.11785512551337, 62.53397788843541 
153.60530128580467, -1.0759759848255817, 21.51931723378897, -17.96214348923723, 76.43698353448406, 62.53230941285902 
152.67593910598794, -1.166184062206064, 21.519308872214857, -16.46939430091679, 76.74247364019367, 62.53074590623898 
151.74595893314847, -1.2501827368396465, 21.519300481437995, -14.888496093482182, 77.03328924999705, 62.52928826137418 
150.81540096715332, -1.327945869943062, 21.51929219370969, -13.218220559748636, 77.30835295972342, 62.52793731193607 
149.88430646162413, -1.3994491989476872, 21.519284132105092, -11.458150861278888, 77.56655453601718, 62.52669383170991 
148.95271764924374, -1.464670359604525, 21.51927641033607, -9.6088443325966, 77.80676207765286, 62.52555853388961 
148.02067766518536, -1.5235889065285284, 21.519269132578263, -7.671994422128784, 78.02783616764876, 62.524532070426446 
147.08823046879593, -1.5761863321221476, 21.51926239331296, -5.650581613149589, 78.22864708000627, 62.52361503143319 
146.15542076366967, -1.6224460838224857, 21.51925627718367, -3.549000764418533, 78.40809489763036, 62.52280794464391 
145.2222939162576, -1.6623535796210405, 21.51925085886764, -1.3731507233491884, 78.56513213632336, 62.52211127493046 
144.28889587316348, -1.6958962218098388, 21.519246202962748, 0.869528265044872, 78.69878817043163, 62.52152542387614 
143.35527307728333, -1.7230634089129044, 21.51924236388949, 3.1700823926341175, 78.80819444910243, 62.52105072940682 
142.42147238294993, -1.7438465457672856, 21.519239385808586, 5.518146866562185, 78.89260922094228, 62.52068746548079 
141.48754097024957, -1.7582390517231956, 21.519237302554068, 7.902127091950703, 78.95144029910088, 62.5204358418368 
140.5535262586803, -1.7662363669386143, 21.519236137582066, 10.30945503004243, 78.9842643462026, 62.520296003801135 
139.61947582032556, -1.7678359567492192, 21.51923590393527, 12.726909286407611, 78.99084127275654, 62.520268032154014 
138.68543729271786, -1.763037314100451, 21.51923660422321, 15.140980006458493, 78.97112263188392, 62.52035194305519 
137.75145829156963, -1.7518419600342783, 21.519238230618296, 17.53825406367536, 78.9252533334514, 62.52054768802908 
136.81758632354845, -1.7342534422292302, 21.519240764867657, 19.90579340862597, 78.85356653712081, 62.52085515400948 
135.88386869927356, -1.7102773315981252, 21.519244178320797, 22.231480334710717, 78.75657214061847, 62.521274163443415 
134.9503524467101, -1.6799212169537703, 21.51924843197294, 24.504307628166124, 78.63493977635922, 62.52180447445459 
134.01708422513508, -1.643194697758851, 21.519253476524163, 26.71459826476159, 78.48947759935126, 62.52244578106578 
133.08411023984698, -1.6001093749818824, 21.519259252453985, 28.85414723337401, 78.32110835192574, 62.52319771347986 
132.15147615778722, -1.5506788400868645, 21.51926569011167, 30.91628586102742, 78.13084421879277, 62.52405983841967 
131.219227024238, -1.4949186621896204, 21.519272709821706, 32.89587556568842, 77.9197618613615, 62.525031659525276 
130.28740718075557, -1.4328463734194659, 21.51928022200472, 34.789242578875474, 77.68897878542612, 62.526112617809325 
129.35606018449354, -1.3644814525296045, 21.51928812731338, 36.59406764385021, 77.43963190145752, 62.52730209216873 
128.42522872906363, -1.2898453068051567, 21.519296316783237, 38.309245192630605, 77.17285882913205, 62.52859939995297 
127.49495456707497, -1.2089612523219646, 21.519304671998277, 39.93472547821089, 76.88978221431162, 62.53000379758761 
126.56527843448646, -1.1218544926141918, 21.519313065270982, 41.471351128250284, 76.59149709093651, 62.53151448125279 
125.63623997689768, -1.0285520958127365, 21.519321359836614, 42.9206971075973, 76.27906114266891, 62.533130587615254 
124.70787767789643, -0.9290829703206528, 21.51932941006152, 44.28492054104071, 75.95348759976619, 62.53485119461332 
123.78022878957239, -0.8234778390951843, 21.519337061665137, 45.56662453497107, 75.6157404388876, 62.536675322293924 
122.85332926529694, -0.7117692126096146, 21.519344151955455, 46.768738202340664, 75.26673152718989, 62.538601933700264 
121.92721369486051, -0.593991360571023, 21.51935051007754, 47.89441359462749, 74.90731935611353, 62.540629935809285 
121.00191524204865, -0.4701802824727875, 21.51935595727491, 48.94693916399474, 74.53830903449054, 62.54275818051741 
120.0774655847293, -0.3403736770630971, 21.51936030716329, 49.9296686653385, 74.16045324652853, 62.54498546567391 
119.15389485751294, -0.2046109108127909, 21.519363366016506, 50.84596399110674, 73.77445392135982, 62.54731053615996 
118.23123159703854, -0.06293298546740476, 21.51936493306399, 51.69915023943848, 73.3809644026238, 62.549732085012344 
117.30950268992747, 0.08461749522999734, 21.519364800799693, 52.49248128308463, 72.98059194603825, 62.552248754590416 
116.38873332343866, 0.23799635955791737, 21.51936275530183, 53.2291141786083, 72.57390040843403, 62.55485913778476 
115.46894693884784, 0.3971579024892216, 21.519358576563118, 53.91209089043731, 72.16141302252521, 62.5575617792663 
114.55016518756503, 0.5620549209290505, 21.519352038831038, 54.54432597153035, 71.74361517761945, 62.56035517677378 
113.63240788999433, 0.7326387494291896, 21.51934291095774, 55.12859902022562, 71.32095714779159, 62.56323778243867 
112.71569299713211, 0.9088592962904967, 21.519330956759024, 55.66755090721799, 70.89385672619854, 62.56620800414545 
111.80003655488981, 1.0906650799653057, 21.519315935381993, 56.163682929095664, 70.46270173775581, 62.569264206925915 
110.88545267111994, 1.2780032656727907, 21.51929760168089, 56.619358190987406, 70.0278524128893, 62.57240471438536 
109.97195348531592, 1.4708197021409932, 21.519275706600588, 57.036804648865036, 69.58964361305453, 62.575627810159574 
109.05954914094808, 1.6690589583908364, 21.519249997567293, 57.418119351917305, 69.14838690465625, 62.57893173940039 
108.1482477603918, 1.8726643604786646, 21.51922021888585, 57.76527351819764, 68.70437248232359, 62.58231471028801 
107.23805542239614, 2.081578028115901, 21.519186112143228, 58.08011815407104, 68.25787094554471, 62.585774895568804 
106.3289761420362, 2.2957409110860816, 21.519147416617603, 58.36438999168478, 67.80913493473217, 62.58931043411632 
105.42101185308503, 2.515092825381937, 21.519103869692458, 58.6197175706499, 67.35840063410852, 62.59291943251371 
104.51416239273765, 2.7395724889872004, 21.519055207275304, 58.847627332123, 66.90588914955778, 62.59659996665597 
103.60842548861274, 2.9691175572306183, 21.51900116422026, 59.04954962715102, 66.45180776992994, 62.60035008336993 
102.7037967479553, 3.203664657641897, 21.518941474754165, 59.226824567914235, 65.996351120328, 62.604167802050306 
101.80026964895852, 3.4431494242422276, 21.518875872905404, 59.380707671617586, 65.53970221573805, 62.60805111630976 
100.89783553412022, 3.68750653120485, 21.518804092935206, 59.51237526329093, 65.08203342305048, 62.61199799564111 
99.99648360554677, 3.9366697258238044, 21.51872586977052, 59.62292961654462, 64.62350733911573, 62.61600638709024 
99.09620092211485, 4.190571860732208, 21.518640939438125, 59.71340382112877, 64.16427759201801, 62.62007421693699 
98.1969723983998, 4.449144925314211, 21.518549039499344, 59.784766373557225, 63.70448957226448, 62.624199392383275 
97.29878080527807, 4.712320076258003, 21.518449909484705, 59.83792549258268, 63.24428110009298, 62.62837980324531 
96.40160677211081, 4.98002766720001, 21.51834329132815, 59.87373316534005, 62.783783034616135, 62.63261332364948 
95.50542879041446, 5.252197277413918, 21.51822892980006, 59.8929889328402, 62.3231198300485, 62.63689781372869 
94.610223218926, 5.528757739500698, 21.518106572938617, 59.8964434254501, 61.8624100438171, 62.641231121318256 
93.71596428996907, 5.8096371660393835, 21.517975972478915, 59.88480166024988, 61.401766800935164, 62.64561108364932 
92.82262411703013, 6.094762975160839, 21.517836884279255, 59.85872611287459, 60.941298218626244, 62.6500355290378 
91.9301727034539, 6.384061915010181, 21.517689068744087, 59.818839576759736, 60.48110779482322, 62.65450227856729 
91.0385779521696, 6.6774600870661995, 21.51753229124296, 59.765727822719356, 60.021294763832074, 62.65900914776412 
90.1478056763622, 6.974882968288951, 21.517366322525103, 59.69994207157411, 59.56195442214431, 62.66355394826281 
89.25781961100394, 7.2762554320697275, 21.51719093912885, 59.62200129217492, 59.10317842710095, 62.668134489460414 
88.36858142516651, 7.581501767960106, 21.51700592378564, 59.532394336689826, 58.645055070857204, 62.67274858015775 
87.48005073503464, 7.89054570015965, 21.51681106581782, 59.43158192446935, 58.187669531864096, 62.677394030186065 
86.59218511754807, 8.203310404744146, 21.516606161529904, 59.31999848521276, 57.7311041058739, 62.68206865201776 
85.70494012460034, 8.519718525619197, 21.51639101459265, 59.19805387154263, 57.27543841828503, 62.68677026235901 
84.81826929772858, 8.839692189185854, 21.51616543641951, 59.06613495047619, 56.820749619470774, 62.69149668372337 
83.93212418323104, 9.16315301770783, 21.515929246534984, 58.92460708267046, 56.36711256457931, 62.69624574598443 
83.04645434765548, 9.490022141371755, 21.51568227293432, 58.773815497722374, 55.914599979152754, 62.70101528790615 
82.16120739360444, 9.820220209034087, 21.515424352434103, 58.614086573231944, 55.46328261178569, 62.70580315864974 
81.27632897580921, 10.15366739765077, 21.51515533101333, 58.44572902478857, 55.013229374928244, 62.710607219254946 
80.39176281742981, 10.490283420386994, 21.514875064144384, 58.26903501352188, 54.56450747483675, 62.7154253440955 
79.50745072654219, 10.829987533407195, 21.51458341711367, 58.08428117736915, 54.117182531579715, 62.720255422306195 
78.6233326127811, 11.172698541346392, 21.514280265331244, 57.89172959175178, 53.67131868992448, 62.725095359181246 
77.739346504111, 11.518334801466592, 21.51396549462921, 57.691628664923996, 53.22697872185208, 62.72994307754237 
76.85542856370472, 11.866814226502768, 21.513639001548384, 57.48421397285724, 52.7842241213803, 62.73479651907524 
75.97151310691422, 12.21805428620545, 21.513300693612877, 57.26970903815051, 52.34311519231214, 62.73965364563333 
75.08753261832499, 12.571972007587819, 21.51295048959222, 57.04832605711283, 51.90371112947103, 62.74451244050837 
74.20341776889141, 12.928483973887026, 21.512588319750645, 56.82026657884345, 51.466070093933645, 62.74937090966555 
73.31909743315673, 13.287506322251144, 21.51221412608323, 56.5857221398398, 51.03024928272459, 62.754227082943345 
72.43449870656843, 13.64895474016401, 21.5118278625385, 56.344874857390494, 50.596304993396664, 62.75907901521637 
71.54954692290613, 14.012744460622256, 21.511429495227297, 56.097897984757864, 50.16429268388193, 62.76392478752084 
70.66416567184626, 14.378790256079833, 21.5110190026175, 55.84495643092253, 49.734267027965686, 62.768762508141364 
69.77827681669496, 14.747006431176805, 21.510596375714382, 55.58620724744804, 49.30628196670344, 62.773590313658296 
68.89180051232779, 15.117306814270652, 21.510161618226388, 55.32180008482631, 48.88039075607448, 62.77840636995543 
