# MEX_intpoint_lon [deg], MEX_intpoint_lat [deg], MEX_intpoint_angle [deg], TGO_intpoint_lon [deg], TGO_intpoint_lat [deg], TGO_intpoint_angle [deg] 
-139.39746564585204, 19.61001353347244, 21.829548747740542, -27.381687166975617, 40.23640520866839, 62.91622697628878 
-140.28629176828304, 19.20464043154358, 21.830156699921513, -27.6414917605118, 40.649036596383354, 62.911536787073224 
-141.17349340497412, 18.80041916494411, 21.83075231047612, -27.89598384666662, 41.06416053953894, 62.9068089941633 
-142.05917585261022, 18.397444011618617, 21.831335412856852, -28.14505724781793, 41.48171835306204, 62.90204508488333 
-142.9434427210132, 17.995808587925733, 21.831905855469298, -28.388601665792848, 41.901650772124555, 62.89724659297919 
-143.82639591412376, 17.595605873393296, 21.832463501687197, -28.62650245803074, 42.32389791944198, 62.89241509808412 
-144.7081356119644, 17.196928234396687, 21.833008229849153, -28.858640402621816, 42.74839927011554, 62.88755222512916 
-145.5887602534347, 16.79986744672668, 21.83353993323756, -29.084891451578848, 43.175093613882126, 62.882659643698545 
-146.468366519803, 16.404514717015232, 21.834058520039488, -29.30512647166337, 43.60391901462645, 62.87773906733048 
-147.3470493187675, 16.010960702989703, 21.834563913289784, -29.51921097204835, 44.03481276699817, 62.87279225276357 
-148.224901768974, 15.61929553252697, 21.835056050796414, -29.727004818060514, 44.46771134996517, 62.86782099912917 
-149.1020151848836, 15.229608821481554, 21.835534885048258, -29.928361930202982, 44.90255037712083, 62.862827147090314 
-149.9784790618969, 14.841989690262428, 21.836000383105407, -30.12312996761747, 45.33926454354923, 62.85781257792742 
-150.8543810616503, 14.456526779134855, 21.83645252647227, -30.31114999510084, 45.77778756903761, 62.852779212571676 
-151.72980699740793, 14.073308262225295, 21.836891310953636, -30.492256132746842, 46.21805213740846, 62.847729010586605 
-152.60484081948402, 13.692421860207915, 21.83731674649379, -30.66627518723871, 46.659989831726804, 62.84266396909808 
-153.4795646006377, 13.313954851653252, 21.83772885699917, -30.833026263773053, 47.103531065119064, 62.83758612167447 
-154.35405852139166, 12.937994083019996, 21.83812768014457, -30.992320357550813, 47.54860500692019, 62.832497537156485 
-155.2284008552343, 12.564625977272668, 21.83851326716334, -31.143959923726964, 47.995139503843404, 62.827400318438734 
-156.10266795367352, 12.193936541108531, 21.8388856826218, -31.28773842466846, 48.44306099584442, 62.82229660120307 
-156.97693423111667, 11.826011370778826, 21.839245004178178, -31.42343985333021, 48.892294426326366, 62.817188552605074 
-157.851272149562, 11.46093565648983, 21.839591322326473, -31.55083823152287, 49.34276314630555, 62.81207836991467 
-158.72575220309045, 11.09879418537141, 21.839924740125532, -31.669697081815247, 49.79438881212893, 62.80696827911182 
-159.600442902158, 10.739671343000854, 21.8402453729137, -31.779768871789802, 50.24709127630436, 62.8018605334386 
-160.4754107576929, 10.383651113472125, 21.84055334800949, -31.88079442935403, 50.70078847097146, 62.79675741190865 
-161.3507202650109, 10.030817078001288, 21.840848804398693, -31.972502327805934, 51.15539628350647, 62.79166121777547 
-162.2264338875676, 9.681252412060418, 21.8411318924082, -32.054608239360675, 51.61082842371792, 62.78657427696074 
-163.10261204057434, 9.335039881034223, 21.841402773367168, -32.12681425587205, 52.066996282050106, 62.781498936444 
-163.97931307450997, 8.992261834394414, 21.84166161925585, -32.18880817552965, 52.52380877817094, 62.77643756261521 
-164.85659325856744, 8.653000198389293, 21.841908612342593, -32.240262754386116, 52.981172199276465, 62.771392539591496 
-165.73450676408055, 8.317336467247184, 21.84214394480952, -32.28083492167375, 53.43899002739955, 62.76636626749981 
-166.6131056479819, 7.985351692894607, 21.84236781836737, -32.31016495801257, 53.89716275496175, 62.76136116072699 
-167.49243983634912, 7.657126473191672, 21.842580443859916, -32.327875635801504, 54.35558768775917, 62.75637964613865 
-168.3725571081017, 7.332740938689661, 21.842782040858644, -32.33357132132795, 54.81415873452116, 62.7514241612689 
-169.25350307891685, 7.0122747379175925, 21.842972837248183, -32.32683703844169, 55.27276618212985, 62.74649715248251 
-170.13532118543765, 6.695807021207035, 21.84315306880283, -32.30723749402736, 55.731296455535784, 62.74160107311101 
-171.01805266985127, 6.3834164230667545, 21.843322978755115, -32.274316065992245, 56.18963186135293, 62.736738381565054 
-171.90173656492087, 6.075181043121514, 21.843482817356534, -32.22759375507754, 56.64765031406585, 62.731911539424466 
-172.78640967955803, 5.77117842563172, 21.843632841431408, -32.16656810252503, 57.105225043733284, 62.72712300950799 
-173.67210658502847, 5.471485537613433, 21.84377331392417, -32.090712076505454, 57.562224284028794, 62.722375253924945 
-174.55885960188502, 5.176178745581386, 21.843904503440903, -31.99947293127115, 58.01851093942024, 62.717670732110335 
-175.44669878772882, 4.885333790940231, 21.844026683785454, -31.892271044259765, 58.47394223026106, 62.71301189884577 
-176.33565192589973, 4.599025764052596, 21.844140133491056, -31.76849873788593, 58.928369314547574, 62.708401202268156 
-177.22574451520202, 4.317329077015663, 21.844245135347833, -31.627519094550248, 59.38163688509371, 62.70384108186818 
-178.11699976077298, 4.040317435181102, 21.844341975926838, -31.46866477551607, 59.83358274089148, 62.6993339664808 
-179.00943856620418, 3.7680638074566533, 21.84443094510136, -31.291236856802588, 60.28403733146676, 62.69488227226991 
-179.90307952702682, 3.500640395431167, 21.844512335566048, -31.0945036981724, 60.73282327311343, 62.69048840070911 
179.202061074326, 3.238118601368084, 21.84458644235443, -30.877699864714167, 61.17975483600206, 62.686154736561306 
178.30596927196646, 2.980568995116108, 21.844653562355546, -30.640025124498997, 61.624637401319816, 62.68188364585876 
177.40863341829612, 2.728061279989358, 21.844713993830318, -30.380643550394172, 62.067266887820324, 62.67767747388618 
176.51004418393237, 2.480664257672639, 21.84476803592826, -30.098682759417436, 62.507429147455376, 62.673538543169315 
175.610194555706, 2.2384457922113903, 21.844815988205134, -29.79323332908471, 62.944899330141865, 62.66946915147055 
174.70907983261816, 2.001472773149052, 21.84485815014224, -29.463348437106983, 63.37944121820393, 62.66547156979473 
173.8066976196488, 1.7698110778785037, 21.844894820667992, -29.10804377859282, 63.81080653164136, 62.661548040406906 
172.90304781930922, 1.5435255332772986, 21.84492629768228, -28.726297823651855, 64.23873420613471, 62.65770077486445 
171.99813262083677, 1.322679876700284, 21.844952877584365, -28.317052487996555, 64.6629496466286, 62.65393195206591 
171.09195648693193, 1.1073367164060985, 21.84497485480494, -27.879214299788217, 65.08316396046727, 62.65024371631876 
170.184526137943, 0.8975574914975172, 21.84499252134278, -27.41165615750421, 65.49907317541819, 62.646638175428414 
169.27585053340937, 0.6934024314586291, 21.845006166306874, -26.91321978588349, 65.91035744954353, 62.64311739881088 
168.36594085087873, 0.494930515374729, 21.845016075464418, -26.38271900981, 66.31668028179591, 62.63968341563119 
167.4548104619213, 0.30219943092362234, 21.84502253079531, -25.818943978970324, 66.71768773445493, 62.636338212969605 
166.54247490526987, 0.11526553322955627, 21.84502581005382, -25.220666488774597, 67.11300768111101, 62.63308373401874 
165.62895185702268, -0.06581619632664923, 21.845026186337922, -24.58664655466844, 67.50224909686304, 62.629921876312395 
164.71426109785432, -0.24099219124559765, 21.845023927666883, -23.915640406669343, 67.8850014107333, 62.62685448998987 
163.79842447718787, -0.4102103408978332, 21.845019296567678, -23.20641007754806, 68.26083394401142, 62.6238833760963 
162.88146587429105, -0.5734200312638451, 21.845012549670727, -22.457734760053718, 68.62929546228307, 62.62101028492276 
161.96341115626905, -0.730572185325179, 21.845003937315596, -21.668424104130942, 68.98991387321817, 62.618236914386706 
161.04428813293572, -0.8816193030053115, 21.844993703167003, -20.837333612046947, 69.34219610667938, 62.6155649084561 
160.1241265085573, -1.0265155005583302, 21.84498208384187, -19.963382265272735, 69.68562821820781, 62.61299585561796 
159.20295783047087, -1.165216549303196, 21.844969308547675, -19.045572479146173, 70.01967576122944, 62.61053128739465 
158.28081543459396, -1.2976799136015402, 21.84495559873272, -18.08301242698287, 70.34378447710759, 62.608172676908545 
157.35773438785034, -1.4238647879772413, 21.844941167748818, -17.074940701699866, 70.65738135507165, 62.60592143749774 
156.43375142755116, -1.5437321332770728, 21.84492622052667, -16.020753187910284, 70.95987611562293, 62.60377892138425 
155.5089048977797, -1.6572447117728066, 21.844910953264552, -14.920031899406256, 71.25066317072182, 62.60174641839656 
154.5832346828426, -1.764367121106912, 21.844895553130588, -13.772575395918349, 71.52912411129715, 62.59982515474805 
153.65678213785966, -1.865065826986053, 21.844880197979073, -12.578430230941613, 71.79463076676822, 62.59801629187303 
152.7295900165775, -1.9593091945288437, 21.844865056081197, -11.337922703795769, 72.04654887171462, 62.59632092532193 
151.80170239650403, -2.047067518177554, 21.844850285870564, -10.051690001702076, 72.28424236105526, 62.59474008371679 
150.87316460147065, -2.128313050086261, 21.844836035703747, -8.720709632910202, 72.50707829674965, 62.59327472776901 
149.9440231217419, -2.203020026901993, 21.844822443636343, -7.346325884927677, 72.71443240604137, 62.59192574936002 
149.01432553180183, -2.271164694859186, 21.84480963721463, -5.930271911142288, 72.90569518393586, 62.59069397068673 
148.0841204059565, -2.332725333112203, 21.844797733283386, -4.474685975282533, 73.08027848173431, 62.58958014347204 
147.15345723190305, -2.387682275235583, 21.844786837809774, -2.982120387341029, 73.23762247037561, 62.588584948242584 
146.2223863224235, -2.436017928826474, 21.84477704572381, -1.4555417657273593, 73.37720283398345, 62.58770899367371 
145.29095872537053, -2.4777167931493858, 21.844768440775518, 0.10167852785222746, 73.49853801779555, 62.58695281600299 
144.35922613212085, -2.5127654747688988, 21.844761095408952, 1.6857846069772735, 73.60119632835297, 62.586316878513244 
143.4272407846781, -2.541152701121969, 21.844755070653232, 3.292667322404944, 73.68480266534442, 62.58580157108507 
142.49505538161404, -2.5628693319877347, 21.84475041603088, 4.917906431702845, 73.74904465652743, 62.58540720982041 
141.56272298304165, -2.577908368818924, 21.8447471694833, 6.556822960022515, 73.79367797178882, 62.58513403673716 
140.6302969148193, -2.5862649619058553, 21.844745357313883, 8.204540443641722, 73.818530610832, 62.584982219534716 
139.6978306721877, -2.5879364153503963, 21.844744994148428, 9.856053197337681, 73.82350599112651, 62.58495185143208 
138.7653778230448, -2.5829221898343926, 21.844746082913176, 11.506299290110457, 73.80858470719748, 62.58504295107759 
137.8329919110651, -2.571223903173769, 21.844748614830472, 13.150235597830429, 73.77382488630786, 62.58525546253082 
136.90072635887105, -2.552845328656615, 21.84475256943187, 14.782912159574364, 73.71936112525087, 62.58558925531676 
135.96863437146297, -2.527792391170489, 21.844757914588953, 16.399543112122405, 73.64540205380575, 62.58604412455199 
135.0367688401144, -2.4960731611310294, 21.844764606561515, 17.99557170911455, 73.55222662776453, 62.586619791142866 
134.1051822469354, -2.4576978462310266, 21.84477259006337, 19.566727322762883, 73.44017930406663, 62.58731590205548 
133.1739265703055, -2.412678781035757, 21.84478179834538, 21.109072835951523, 73.30966428913862, 62.58813203065658 
132.24305319137144, -2.361030414457065, 21.844792153295824, 22.61904141043444, 73.16113907691431, 62.58906767712577 
131.3126128018023, -2.302769295145158, 21.84480356555787, 24.09346220942126, 72.99510750446943, 62.59012226893753 
130.38265531298666, -2.237914054843498, 21.84481593466403, 25.52957521103698, 72.81211255132509, 62.59129516141327 
129.45322976685108, -2.166485389758016, 21.84482914918735, 26.92503573338041, 72.6127290949388, 62.5925856383421 
128.524384248471, -2.0885060399979687, 21.844843086909275, 28.277909675364434, 72.39755681215175, 62.59399291266966 
127.59616580063722, -2.004000767151009, 21.844857615003832, 29.586660747082444, 72.16721338724082, 62.595516127253944 
126.66862034053247, -1.9129963300606339, 21.844872590237898, 30.850131118640032, 71.9223281546055, 62.597154355687756 
125.74179257866231, -1.815521458878668, 21.84488785918743, 32.06751696694033, 71.66353627063431, 62.59890660318535 
124.81572594017557, -1.7116068274704184, 21.84490325846916, 33.238340362505575, 71.39147347712198, 62.60077180753386 
123.89046248869866, -1.6012850242540486, 21.844918614987584, 34.36241883344987, 71.10677148937614, 62.60274884010655 
122.96604285279662, -1.4845905215597361, 21.844933746196933, 35.43983379236538, 70.81005401692593, 62.60483650693773 
122.04250615516375, -1.3615596435975263, 21.844948460377648, 36.47089883390377, 70.50193340406125, 62.60703354985732 
121.11988994463412, -1.2322305331259105, 21.844962556927186, 37.45612872310677, 70.18300786139969, 62.609338647683856 
120.19823013109107, -1.0966431169158088, 21.844975826664538, 38.396209710344706, 69.85385924806994, 62.6117504174742 
119.27756092334337, -0.9548390701068245, 21.844988052148242, 39.29197163760554, 69.51505135647076, 62.614267415828266 
118.35791477002311, -0.8068617795546315, 21.844999008007463, 40.144362148924344, 69.16712864733573, 62.616888140247454 
117.4393223035494, -0.6527563062695958, 21.84500846128553, 40.95442318810591, 68.81061538138172, 62.61961103054458 
116.52181228718989, -0.4925693470480192, 21.845016171795713, 41.72326986042642, 68.4460150945273, 62.62243447030364 
115.6054115652406, -0.326349195397892, 21.845021892488532, 42.452071650887724, 68.07381036596665, 62.625356788387684 
114.69014501633373, -0.15414570186132193, 21.84502536983035, 43.142035927935076, 67.69446283178048, 62.62837626049271 
113.77603550987106, 0.023989766164146, 21.845026344192537, 43.794393615809646, 67.30841340084092, 62.63149111074556 
112.86310386557135, 0.20800436500370614, 21.84502455025085, 44.4103868881102, 66.91608263419023, 62.63469951334397 
111.95136881610867, 0.39784381558202386, 21.845019717394408, 44.991258716910735, 66.51787125358871, 62.6379995942367 
111.04084697280892, 0.5934524444988325, 21.845011570143765, 45.538244103330506, 66.11416074934444, 62.6413894328413 
110.1315527943633, 0.7947732252048724, 21.84499982857749, 46.05256281446476, 65.70531406173085, 62.64486706379789 
109.22349855850702, 1.0017478191817548, 21.844984208766796, 46.5354134560737, 65.29167631417903, 62.64843047875645 
108.31669433660494, 1.214316617030873, 21.844964423217483, 46.987968718739936, 64.87357557995698, 62.65207762819549 
107.41114797107649, 1.4324187793790637, 21.844940181318794, 47.411371646008206, 64.4513236671964, 62.65580642326994 
106.50686505558603, 1.6559922775109863, 21.844911189798385, 47.80673278526516, 64.02521690990088, 62.65961473768585 
105.6038489179176, 1.8849739336409228, 21.844877153183077, 48.17512809500646, 63.59553695498061, 62.66350040960002 
104.70210060544764, 2.1192994607395117, 21.84483777426452, 48.51759749507934, 63.16255153743508, 62.667461243541695 
103.80161887312264, 2.358903501834023, 21.8447927545693, 48.83514395906583, 62.72651523756957, 62.67149501235466 
102.90240017384559, 2.6037196687038016, 21.844741794832952, 49.12873305989842, 62.28767021562193, 62.675599459157034 
102.00443865116968, 2.8536805798958302, 21.84468459547695, 49.39929289090282, 61.84624692041844, 62.67977229931663 
101.10772613419421, 3.1087178979889467, 21.84462085708847, 49.64771429464162, 61.4024647697062, 62.684011222439395 
100.21225213455574, 3.3687623660381902, 21.844550280901917, 49.87485134115232, 60.956532800651004, 62.68831389436912 
99.31800384540412, 3.6337438431349063, 21.844472569281866, 50.081522005439155, 60.508650289672474, 62.69267795919543 
98.42496614225183, 3.9035913390211614, 21.84438742620657, 50.26850900142233, 60.059007341333896, 62.697101041268425 
97.53312158558367, 4.178233047701159, 21.844294557751578, 50.43656073602766, 59.607785446436026, 62.70158074721726 
96.6424504251136, 4.457596379995382, 21.8441936725727, 50.58639235277409, 59.15515800979985, 62.70611466797065 
95.75293060557497, 4.741607994987289, 21.844084482387768, 50.71868683916103, 58.701290848478365, 62.71070038077697 
94.86453777393129, 5.030193830315354, 21.843966702456502, 50.834096176439324, 58.246342661328086, 62.7153354512218 
93.97724528789506, 5.323279131267358, 21.84384005205795, 50.93324251404234, 57.79046547100584, 62.72001743524062 
93.09102422564429, 5.620788478636661, 21.843704254964738, 51.016719354120916, 57.333805039549155, 62.724743881124525 
92.20584339662777, 5.922645815304066, 21.843559039913615, 51.085092734333585, 56.876501258754786, 62.72951233151702 
91.32166935335225, 6.228774471511944, 21.843404141071687, 51.13890239934593, 56.41868851659793, 62.734320325399445 
90.43846640404799, 6.539097188800432, 21.843239298497593, 51.17866295344392, 55.960496040942196, 62.7391654000631 
89.55619662611146, 6.853536142578948, 21.84306425859724, 51.204864988312444, 55.50204822177758, 62.74404509306621 
88.67481988022827, 7.172012963308928, 21.84287877457326, 51.21797618141258, 55.04346491320098, 62.74895694417357 
87.79429382508187, 7.494448756276951, 21.842682606867815, 51.21844236154736, 54.58486171631833, 62.75389849727663 
86.91457393255942, 7.820764119939876, 21.842475523597994, 51.20668853916768, 54.12635024420716, 62.75886730229276 
86.03561350336847, 8.150879162826783, 21.84225730098335, 51.18311989976595, 53.668038370030864, 62.763860917041086 
85.1573636829846, 8.48471351898453, 21.842027723764986, 51.14812275935995, 53.21003045934739, 62.768876909093706 
84.27977347785391, 8.822186361956728, 21.84178658561558, 51.102065481604114, 52.75242758760269, 62.77391285759989 
83.4027897717795, 9.163216417287986, 21.841533689539908, 51.04529935649877, 52.29532774374774, 62.77896635508204 
82.52635734242703, 9.507721973547525, 21.841268848265248, 50.97815944101582, 51.83882602086526, 62.78403500920138 
81.65041887788907, 9.855620891868673, 21.8409918846212, 50.900965362234786, 51.383014794641355, 62.78911644449173 
80.77491499325446, 10.206830614002255, 21.840702631908417, 50.81402208379881, 50.927983890466855, 62.79420830406023 
79.89978424713428, 10.561268168884414, 21.840400934255737, 50.717620636664904, 50.47382073990493, 62.799308251252505 
79.02496315810272, 10.918850177720595, 21.84008664696525, 50.61203881524627, 50.02061052721478, 62.80441397128217 
78.15038622101648, 11.279492857589686, 21.839759636844857, 50.49754184013223, 49.568436326576645, 62.80952317282163 
77.27598592318387, 11.64311202357339, 21.83941978252783, 50.37438298863183, 49.117379230621374, 62.81463358955405 
76.4016927603605, 12.009623089417927, 21.839066974779048, 50.242804194422895, 48.66751847082681, 62.819742981684776 
75.52743525255576, 12.378941066736282, 21.838701116787302, 50.10303661760584, 48.21893153030622, 62.824849137410624 
74.65313995964097, 12.750980562760557, 21.83832212444353, 49.95530118646328, 47.771694249477534, 62.829949874345985 
73.77873149675693, 13.125655776655726, 21.837929926604374, 49.79980911221617, 47.3258809250687, 62.83504304090511 
72.9041325495269, 13.502880494406734, 21.837524465340824, 49.6367623780465, 46.88156440288319, 62.840126517638495 
72.0292638890869, 13.882568082292646, 21.837105696171598, 49.46635420362923, 46.438816164719505, 62.84519821852313 
71.15404438695451, 14.264631478962327, 21.836673588280835, 49.28876948638212, 45.997706409811705, 62.85025609220515 
70.27839102976364, 14.648983186127635, 21.836228124719984, 49.104185220604116, 45.55830413113131, 62.85529812319432 
69.40221893390245, 15.035535257890887, 21.835769302593356, 48.9127708956322, 45.12067718686763, 62.86032233300902 
