# MEX_intpoint_lon [deg], MEX_intpoint_lat [deg], MEX_intpoint_angle [deg], TGO_intpoint_lon [deg], TGO_intpoint_lat [deg], TGO_intpoint_angle [deg] 
-139.47297654658772, 19.62727189699044, 21.882159023643336, -27.328833760587102, 39.60012503005698, 62.93006170611667 
-140.36004450577107, 19.21912712299712, 21.882773162602827, -27.580023661357973, 40.014659087068274, 62.92536396901226 
-141.24548881881935, 18.812149956783678, 21.883374761382484, -27.82577758442813, 40.4316513708031, 62.92062747769137 
-142.12941592499035, 18.40643490965987, 21.883963651851555, -28.065988036863526, 40.85104146250706, 62.915853723242925 
-143.01193054060826, 18.002075830632254, 21.8845396810733, -28.300543413209255, 41.272768328760186, 62.911044244557516 
-143.89313564123842, 17.599165931850784, 21.885102711319785, -28.529327775924745, 41.696770286956884, 62.906200627789794 
-144.77313244479282, 17.197797812945243, 21.885652620068367, -28.752220625289098, 42.12298496825793, 62.90132450576425 
-145.6520203954157, 16.79806348421908, 21.886189299979904, -28.969096658197312, 42.551349277878344, 62.89641755732438 
-146.52989714801257, 16.40005438866952, 21.88671265885873, -29.179825515237134, 42.981799352565275, 62.89148150662565 
-147.40685855329573, 16.003861422805194, 21.887222619594468, -29.384271515405754, 43.41427051510894, 62.88651812237256 
-148.2829986432306, 15.609574956233695, 21.887719120085944, -29.582293377793253, 43.848697225718006, 62.88152921700006 
-149.15840961677833, 15.217284849993312, 21.888202113147095, -29.773743929527903, 44.285013030078595, 62.876516645799974 
-150.03318182583945, 14.827080473604509, 21.888671566395303, -29.958469799245158, 44.72315050390191, 62.87148230599301 
-150.90740376131438, 14.439050720817935, 21.88912746212203, -30.136311095310266, 45.16304119375218, 62.866428135746396 
-151.78116203920436, 14.053284024037316, 21.88956979714636, -30.307101067991574, 45.60461555392988, 62.86135611313859 
-152.65454138668838, 13.669868367396322, 21.889998582651153, -30.470665754750232, 46.047802879169886, 62.85626825507084 
-153.5276246281172, 13.288891298470176, 21.890413844002587, -30.626823607781734, 46.492531232895196, 62.851166616127294 
-154.40049267087767, 12.910439938603332, 21.89081562055292, -30.775385102916154, 46.938727370749326, 62.8460532873835 
-155.27322449108684, 12.534600991836232, 21.89120396542701, -30.916152328958134, 47.38631665910861, 62.84093039516504 
-156.14589711908417, 12.161460752414643, 21.89157894529278, -31.048918556525326, 47.83522298825565, 62.8358000997565 
-157.0185856246987, 11.79110511086687, 21.89194064011603, -31.173467785426364, 48.28536867987062, 62.83066459406238 
-157.89136310227542, 11.423619558634437, 21.892289142899827, -31.28957426960736, 48.73667438847388, 62.825526102220344 
-158.76430065545227, 11.059089191243897, 21.892624559408944, -31.397002018691914, 49.18905899642614, 62.82038687816866 
-159.63746738168803, 10.697598710007782, 21.892947007879616, -31.495504275144032, 49.642439502065805, 62.815249204168076 
-160.51093035654696, 10.33923242224463, 21.893256618715082, -31.58482296610016, 50.096730900533245, 62.81011538928045 
-161.38475461775454, 9.98407424000891, 21.893553534167392, -31.66468812894642, 50.55184605680102, 62.804987767804256 
-162.25900314904467, 9.632207677323168, 21.89383790800563, -31.73481730976478, 51.007695570396926, 62.79986869766929 
-163.13373686382627, 9.283715845906338, 21.894109905171387, -31.794914933839692, 51.46418763127249, 62.7947605587912 
-164.009014588703, 8.938681449393423, 21.894369701421606, -31.84467164750951, 51.92122786623419, 62.789665751387886 
-164.88489304688656, 8.597186776043698, 21.89461748295944, -31.88376363076904, 52.37871917531792, 62.7845866942589 
-165.7614268415512, 8.259313689936004, 21.89485344605365, -31.91185188018789, 52.83656155744935, 62.77952582302937 
-166.63866843918157, 7.925143620651926, 21.895077796646845, -31.92858146190821, 53.29465192469365, 62.77448558836048 
-167.51666815297295, 7.594757551449195, 21.895290749953404, -31.93358073473543, 53.75288390435947, 62.76946845412762 
-168.39547412634914, 7.268236005930127, 21.895492530047182, -31.9264605436439, 54.21114762818148, 62.76447689556838 
-169.27513231666723, 6.9456590332117925, 21.895683369440004, -31.906813384396255, 54.669329507767905, 62.75951339740178 
-170.15568647918536, 6.62710619160709, 21.895863508651157, -31.874212540434748, 55.12731199546108, 62.75458045192079 
-171.03717815137387, 6.312656530828182, 21.896033195768588, -31.828211193756086, 55.584973329723766, 62.74968055706005 
-171.91964663765526, 6.00238857272662, 21.896192686002387, -31.768341512146268, 56.04218726413184, 62.74481621444044 
-172.8031289946629, 5.69638029058672, 21.89634224123105, -31.694113715946063, 56.49882277902645, 62.739989927392465 
-173.6876600171131, 5.394709086991778, 21.89648212954129, -31.60501512846169, 56.95474377485862, 62.73520419896106 
-174.57327222438823, 5.097451770285836, 21.896612624761804, -31.500509215252514, 57.40980874624617, 62.73046152989271 
-175.4599958479339, 4.804684529656146, 21.89673400599168, -31.380034618845144, 57.86387043576398, 62.72576441660827 
-176.3478588195744, 4.51648290886528, 21.89684655712417, -31.24300419697021, 58.31677546650123, 62.72111534916231 
-177.23688676085573, 4.232921778664582, 21.896950566366247, -31.08880407422754, 58.76836395245294, 62.71651680919238 
-178.1271029735262, 3.9540753079241577, 21.89704632575475, -30.916792719194415, 59.21846908586863, 62.71197126785929 
-179.01852843126866, 3.680016933517994, 21.89713413066963, -30.726300061438952, 59.66691670076478, 62.70748118378141 
-179.91118177279787, 3.410819329006373, 21.897214279345064, -30.516626665729753, 60.11352481192751, 62.70304900096464 
179.19492070355986, 3.146554372161059, 21.89728707237888, -30.28704298398914, 60.558103128892974, 62.69867714673086 
178.29976504368867, 2.887293111382538, 21.897352812241156, -30.036788709267224, 61.00045254460689, 62.69436802964664 
177.40333963978978, 2.6331057310622192, 21.897411802782475, -29.765072260265736, 61.44036459873806, 62.690124037454886 
176.50563523065554, 2.3840615159459397, 21.897464348742556, -29.471070429757763, 61.87762091596964, 62.68594753501157 
175.60664489999596, 2.1402288145591797, 21.897510755259887, -29.153928235677498, 62.31199262002622, 62.68184086223 
174.7063640727025, 1.9016750017575597, 21.89755132738294, -28.812759019719785, 62.7432397247313, 62.67780633203463 
173.80479050893723, 1.6684664404702774, 21.897586369583763, -28.446644845019787, 63.171110504045735, 62.673846228327555 
172.9019242959375, 1.4406684427073817, 21.897616185274433, -28.054637251871405, 63.59534084383073, 62.66996280396901 
171.99776783742973, 1.2183452299054975, 21.89764107632702, -27.635758438467427, 64.01565357903002, 62.666158278775114 
171.09232584054968, 1.0015598926899345, 21.89766134259782, -27.18900294223336, 64.43175782109586, 62.66243483753469 
170.18560530017135, 0.7903743501344503, 21.897677281456353, -26.713339906365317, 64.84334828181579, 62.658794628048 
169.27761548055122, 0.5848493086031104, 21.89768918731972, -26.207716025482867, 65.2501046012503, 62.65523975918899 
168.36836789420155, 0.3850442202618286, 21.89769735119312, -25.671059273600648, 65.65169068929032, 62.65177229899426 
167.45787627791142, 0.19101724134978132, 21.897702060216904, -25.10228352652838, 66.04775409240082, 62.648394272780536 
166.54615656584235, 0.0028251903038249734, 21.89770359722087, -24.50029419882192, 66.43792539944572, 62.6451076612931 
165.63322685963257, -0.17947649416873096, 21.897702240286456, -23.86399502186497, 66.82181770309313, 62.64191439888725 
164.7191073954525, -0.3558337949713868, 21.89769826231722, -23.192296093723808, 67.1990261361673, 62.63881637174548 
163.80382050796246, -0.5261941583541158, 21.89769193061837, -22.48412333204797, 67.56912750541758, 62.63581541613231 
162.88739059113365, -0.6905065354023271, 21.89768350648573, -21.738429457239324, 67.93168004846828, 62.632913316688835 
161.9698440559024, -0.8487214231765597, 21.897673244804853, -20.954206622920697, 68.28622334311288, 62.63011180476952 
161.051209284639, -1.0007909053994446, 21.897661393660627, -20.13050079274959, 68.63227840151255, 62.627412556822854 
160.1315165824225, -1.1466686925855887, 21.89764819395803, -19.266427935043296, 68.96934798509028, 62.62481719281861 
159.21079812512465, -1.2863101615100414, 21.897633879054506, -18.361192067649252, 69.29691717877651, 62.622327274722814 
158.2890879043162, -1.4196723939107914, 21.89761867440434, -17.414105133221323, 69.61445426549543, 62.619944305023395 
157.3664216690231, -1.54671421432131, 21.897602797215733, -16.424608618021864, 69.9214119430713, 62.617669725307586 
156.44283686436884, -1.667396226930048, 21.89758645612071, -15.392296744550919, 70.21722892571118, 62.61550491489338 
155.51837256715405, -1.781680851364912, 21.89756985085861, -14.316940969527048, 70.50133197047296, 62.61345118951667 
154.5930694184348, -1.88953235730255, 21.897553171973414, -13.19851540502791, 70.7731383652224, 62.61150980007591 
153.6669695531741, -1.990916897804281, 21.897536600525275, -12.037222654552846, 71.0320589080851, 62.60968193143583 
152.74011652705275, -2.0858025412829297, 21.89752030781677, -10.833519421973401, 71.27750139892778, 62.60796870129169 
151.81255524053745, -2.174159302007965, 21.897504455134108, -9.588141116633592, 71.50887465066903, 62.60637115909605 
150.884331860317, -2.255959169059339, 21.89748919350377, -8.302124551480318, 71.725593012101, 62.60489028504863 
149.9554937382262, -2.3311761336444405, 21.8974746634647, -6.976827724532841, 71.92708137450752, 62.60352698915174 
149.0260893277915, -2.3997862146964772, 21.89746099485659, -5.613945600484445, 72.11278061209879, 62.60228211033137 
148.09616809853992, -2.4617674826772293, 21.89744830662436, -4.215520782847079, 72.28215338190707, 62.60115641562602 
147.16578044822504, -2.5171000815118676, 21.897436706639205, -2.7839480013336053, 72.43469018344408, 62.60015059944388 
146.23497761313172, -2.5657662485888415, 21.897426291536345, -1.3219714453264066, 72.56991555361746, 62.59926528288957 
145.30381157663132, -2.607750332763205, 21.897417146569772, 0.1673258408234269, 72.68739424996022, 62.598501013161005 
144.3723349761666, -2.6430388103078237, 21.89740934548418, 1.6805410207371068, 72.78673725713699, 62.59785826301807 
143.4406010088526, -2.671620298762691, 21.89740295040419, 3.213979171141821, 72.8676074399617, 62.59733743032249 
142.508663335887, -2.693485568639233, 21.8973980117411, 4.7636894211700405, 72.92972466256951, 62.59693883765077 
141.57657598596873, -2.7086275529427946, 21.897394568117203, 6.325508894419422, 72.9728701992542, 62.59666273198006 
140.644393257928, -2.7170413544834493, 21.897392646307868, 7.895113398788874, 72.9968902784439, 62.596509284447436 
139.71216962277515, -2.718724250952006, 21.89739226120129, 9.468073420297701, 73.00169862712549, 62.59647859018316 
138.7799596253785, -2.7136756977452454, 21.897393415776243, 11.039913657846165, 72.98727791759819, 62.59657066821796 
137.84781778598256, -2.7018973285314143, 21.897396101097563, 12.606174116401885, 72.95368005972016, 62.59678546146437 
136.9157985017797, -2.6833929535541823, 21.89740029632955, 14.16247067794344, 72.90102532707516, 62.597122836772506 
135.9839559487469, -2.6581685556804713, 21.89740596876726, 15.704553102489909, 72.82950035157059, 62.59758258505975 
135.05234398395925, -2.626232284204592, 21.897413073885517, 17.228358572373057, 72.7393550646269, 62.59816442151463 
134.12101604858856, -2.587594446428281, 21.897421555405828, 18.73005916559308, 72.63089870134745, 62.59886798587413 
133.19002507179255, -2.542267497043146, 21.897431345380753, 20.20610200229303, 72.50449501446165, 62.59969284277453 
132.25942337569617, -2.4902660253488413, 21.897442364296037, 21.65324121904261, 72.36055686581962, 62.60063848217498 
131.32926258166057, -2.4316067403470014, 21.897454521189978, 23.06856135331915, 72.19954037410069, 62.601704319853226 
130.39959351803037, -2.3663084537573904, 21.897467713790142, 24.4494921317864, 72.02193879841164, 62.602889697973076 
129.47046612954153, -2.29439206100895, 21.89748182866717, 25.79381502257638, 71.82827632958866, 62.60419388572269 
128.54192938856616, -2.2158805202644163, 21.897496741405313, 27.099662213388747, 71.61910194586675, 62.605616080022656 
127.61403120835988, -2.1307988295428064, 21.897512316789797, 28.36550890215775, 71.39498346905785, 62.607155406303214 
126.68681835847087, -2.039174002009516, 21.89752840901044, 29.59015993205367, 71.15650193351387, 62.60881091934928 
125.76033638245737, -1.9410350395087095, 21.897544861881446, 30.77273187162768, 70.90424635486734, 62.61058160421251 
124.8346295180518, -1.836412904417484, 21.89756150907703, 31.91263164326721, 70.63880896051582, 62.61246637718883 
123.90974061989863, -1.7253404899053912, 21.89757817438253, 33.009532751417254, 70.36078092037717, 62.614464086860075 
122.9857110849806, -1.607852588687078, 21.897594671960725, 34.063350070244404, 70.07074859554054, 62.6165735151989 
122.06258078083863, -1.4839858603591107, 21.897610806633015, 35.07421403238179, 69.76929030464956, 62.618793378734914 
121.1403879766765, -1.3537787974152433, 21.897626374174997, 36.04244492854861, 69.45697359343023, 62.62112232978051 
120.21916927743133, -1.21727169003712, 21.89764116162614, 36.9685278925833, 69.13435298170089, 62.6235589577155 
119.2989595608777, -1.074506589759674, 21.897654947613123, 37.853089015800116, 68.80196815425958, 62.626101790327866 
118.37979191782114, -0.9255272721122483, 21.897667502686417, 38.6968729142565, 68.46034255689536, 62.62874929520947 
117.4616975954256, -0.7703791983381387, 21.897678589669596, 39.50072196605463, 68.10998235599833, 62.63149988120488 
116.5447059437061, -0.609109476296068, 21.89768796402103, 40.26555734495918, 67.75137571941167, 62.63435189991139 
115.62884436520687, -0.4417668206479494, 21.897695374207395, 40.992361901766884, 67.38499237685163, 62.637303647227874 
114.71413826787371, -0.2684015124374026, 21.89770056208853, 41.682164885370945, 67.0112834200253, 62.640353364951444 
113.80061102111706, -0.08906535816344023, 21.897703263313154, 42.33602845002357, 66.63068130516243, 62.6434992424186 
112.88828391505282, 0.09618835154675373, 21.897703207724913, 42.955035862225024, 66.24360002375276, 62.64673941819022 
111.97717612289603, 0.28730488356285316, 21.897700119778168, 43.54028129811707, 65.85043541061825, 62.65007198177682 
111.06730466647277, 0.48422810407245925, 21.897693718963076, 44.092861108387105, 65.4515655618634, 62.653494975402936 
110.15868438480693, 0.6869005204975989, 21.89768372023932, 44.6138664207635, 65.04735133860667, 62.657006395808125 
109.2513279057277, 0.8952633234082765, 21.897669834477988, 45.10437694864311, 64.63813693560076, 62.66060419608238 
108.34524562043686, 1.1092564283362802, 21.89765176891084, 45.565455876879696, 64.22425049684173, 62.66428628753316 
107.44044566096528, 1.3288185173952074, 21.897629227586748, 45.998145701140835, 63.8060047630034, 62.66805054158282 
106.53693388044243, 1.5538870806148604, 21.897601911834258, 46.403464904566846, 63.38369773800056, 62.67189479169309 
105.63471383609406, 1.784398456901218, 21.89756952072999, 46.78240536399926, 62.95761336417714, 62.67581683531489 
104.7337867748789, 2.0202878745357955, 21.897531751572117, 47.135930387199004, 62.52802219754106, 62.67981443586087 
103.834151621668, 2.26148949113176, 21.89748830035835, 47.46497329181221, 62.095182076141434, 62.68388532469853 
102.93580496986725, 2.507936432966919, 21.89743886226778, 47.77043644603834, 61.659338776124024, 62.68802720316114 
102.0387410743777, 2.7595608336174613, 21.897383132145958, 48.053190699788296, 61.22072665122906, 62.69223774457482 
101.14295184678603, 3.016293871819693, 21.89732080499258, 48.31407514343744, 60.779569252533, 62.696514596298506 
100.24842685267377, 3.2780658084903145, 21.89725157645113, 48.55389713899105, 60.33607992610626, 62.70085538177529 
99.35515331093207, 3.544806022839896, 21.897175143299794, 48.773432575540106, 59.890462386979635, 62.7052577025921 
98.46311609496662, 3.816443047517216, 21.897091203943162, 48.97342630728226, 59.44291126840744, 62.709719140545964 
97.57229773567641, 4.092904602726494, 21.896999458903856, 49.15459273812637, 58.993612645897606, 62.714237259714 
96.68267842608985, 4.374117629262434, 21.89689961131358, 49.317616522016394, 58.54274453587011, 62.7188096085252 
95.79423602754042, 4.660008320412446, 21.896791367402937, 49.46315335263986, 58.09047736911326, 62.72343372183139 
94.90694607726667, 4.9505021526783, 21.896674436989347, 49.591830820170664, 57.63697443945097, 62.72810712297554 
94.02078179731974, 5.245523915273659, 21.89654853396241, 49.70424931618341, 57.18239232821961, 62.73282732585459 
93.13571410466581, 5.544997738356908, 21.896413376766162, 49.800982970913026, 56.72688130529282, 62.737591836975106 
92.25171162237042, 5.848847119962609, 21.896268688877438, 49.882580609666384, 56.27058570749332, 62.74239815749912 
91.36874069175556, 6.156994951597983, 21.89611419927993, 49.94956671746535, 55.81364429529999, 62.74724378527833 
90.48676538542254, 6.469363542474145, 21.8959496429331, 50.00244240295558, 55.3561905888024, 62.75212621687453 
89.60574752103683, 6.785874642345173, 21.89577476123551, 50.041686354288565, 54.898353183877155, 62.75704294956368 
88.72564667577475, 7.106449462930846, 21.895589302481877, 50.0677557811134, 54.44025604956775, 62.76199148332228 
87.8464202013357, 7.431008697902264, 21.895393022313247, 50.08108733802813, 53.982018807642206, 62.76696932279344 
86.9680232394276, 7.759472541411924, 21.895185684159713, 50.082098025868376, 53.52375699528687, 62.77197397923118 
86.09040873763766, 8.09176070515311, 21.89496705967515, 50.07118606807693, 53.06558231186992, 62.77700297242038 
85.2135274656061, 8.427792433935501, 21.89473692916334, 50.048731760125385, 52.60760285067864, 62.782053832571165 
84.33732803142372, 8.767486519766928, 21.89449508199487, 50.015098290565646, 52.14992331650012, 62.78712410218568 
83.46175689818145, 9.110761314433148, 21.89424131701443, 49.97063253279373, 51.692645229878764, 62.79221133789492 
82.58675840060384, 9.457534740569953, 21.893975442937776, 49.91566580702506, 51.23586711884497, 62.79731311226495 
81.71227476170503, 9.807724301224201, 21.893697278737974, 49.8505146123212, 50.77968469887056, 62.80242701556975 
80.83824610941112, 10.161247087901945, 21.893406654020392, 49.77548132878639, 50.32419104176687, 62.807550657529674 
79.96461049309889, 10.518019787104311, 21.89310340938579, 49.69085489027529, 49.86947673420202, 62.812681669013955 
79.09130390000755, 10.877958685352926, 21.892787396781323, 49.596911428131385, 49.41563002647608, 62.817817703705224 
78.21826027148556, 11.240979672709102, 21.892458479838737, 49.49391488661473, 48.96273697215453, 62.82295643972519 
77.34541151904239, 11.606998244791852, 21.892116534199346, 49.38211761078435, 48.510881559125615, 62.82809558121967 
76.47268754018016, 11.975929503301927, 21.89176144782548, 49.261760907680724, 48.0601458326107, 62.83323285990157 
75.6000162339889, 12.347688155060107, 21.891393121297853, 49.133075581710536, 47.61061001062558, 62.8383660365511 
74.72732351649445, 12.722188509569408, 21.891011468098498, 48.996282445174664, 47.16235259235719, 62.84349290247088 
73.85453333575612, 13.099344475112366, 21.890616414878945, 48.851592804903106, 46.71545045989141, 62.848611280895945 
72.98156768671863, 13.479069553395362, 21.89020790171312, 48.69920892597086, 46.269978973698635, 62.85371902835688 
72.1083466258298, 13.86127683275358, 21.889785882334753, 48.539324473469044, 45.82601206225704, 62.858814035994754 
71.23478828544407, 14.245878979930968, 21.889350324358976, 48.372124933296696, 45.38362230616842, 62.863894230827725 
70.36080888803876, 14.632788230450979, 21.88890120948764, 48.19778801292435, 44.94288101709717, 62.86895757696728 
69.48632276027946, 15.021916377594607, 21.88843853369826, 48.016484023059824, 44.503858311841405, 62.87400207678432 
