# MEX_intpoint_lon [deg], MEX_intpoint_lat [deg], MEX_intpoint_angle [deg], TGO_intpoint_lon [deg], TGO_intpoint_lat [deg], TGO_intpoint_angle [deg] 
-138.264151061718, 19.332350267965847, 21.076996259264202, -27.629781521875397, 49.12930494798422, 62.72985151659235 
-139.17714363007022, 18.968280876915564, 21.07751597913278, -28.05400427476558, 49.49920028785386, 62.7256881168755 
-140.08853650947458, 18.605141231894894, 21.078026071046466, -28.475770030686014, 49.871840720076996, 62.72150335417474 
-140.998417876466, 18.2430211769824, 21.078526391210538, -28.895039222040264, 50.24719075836228, 62.71729853418251 
-141.9068747249735, 17.882009929157103, 21.079016807491453, -29.311770526385004, 50.625214858960724, 62.71307498935803 
-142.81399283381845, 17.522196093093847, 21.079497199432467, -29.725920739794287, 51.00587742054954, 62.7088340784773 
-143.71985673566343, 17.163667675329343, 21.079967458255243, -30.137444641839735, 51.38914278362944, 62.704577186150566 
-144.62454968729242, 16.806512097758727, 21.08042748684736, -30.546294851497727, 51.77497522941235, 62.7003057223072 
-145.52815364111362, 16.450816210423724, 21.080877199735877, -30.952421673229008, 52.16333897817486, 62.69602112164875 
-146.43074921778066, 16.09666630355656, 21.081316523046866, -31.355772932402544, 52.55419818704962, 62.69172484306957 
-147.3324156798375, 15.74414811884519, 21.08174539445124, -31.756293799154427, 52.94751694722467, 62.68741836904626 
-148.233230906298, 15.39334685988787, 21.08216376309672, -32.153926599682165, 53.34325928051676, 62.683103204995554 
-149.13327136807877, 15.044347201806707, 21.082571589526346, -32.54861061387468, 53.74138913528166, 62.67878087860128 
-150.03261210421147, 14.697233299991675, 21.082968845583324, -32.94028185806689, 54.1418703816203, 62.67445293911096 
-150.93132669876573, 14.352088797948637, 21.083355514302735, -33.328872851583206, 54.544666805835064, 62.670120956602176 
-151.8294872584231, 14.008996834226087, 21.08373158979, -33.71431236559603, 54.94974210408549, 62.66578652121943 
-152.72716439064627, 13.668040048397689, 21.084097077086415, -34.09652515267017, 55.35705987518694, 62.66145124238177 
-153.62442718239717, 13.329300586078555, 21.084451992021915, -34.47543165519153, 55.76658361248997, 62.65711674796218 
-154.52134317936083, 12.992860102955525, 21.08479636105533, -34.85094769068359, 56.17827669476995, 62.65278468343854 
-155.41797836564083, 12.65879976781266, 21.08513022110227, -35.22298411179882, 56.59210237604991, 62.64845671101779 
-156.31439714389646, 12.327200264535305, 21.085453619351014, -35.59144643852652, 57.00802377426911, 62.644134508733025 
-157.21066231589842, 11.998141793077108, 21.085766613066586, -35.95623445988537, 57.42600385870099, 62.63981976951475 
-158.1068350634852, 11.671704069376386, 21.086069269383245, -36.31724180205757, 57.846005436011424, 62.635514200236905 
-159.00297492990904, 11.347966324209452, 21.08636166508582, -36.67435545957388, 58.26799113483666, 62.631219520738284 
-159.8991398015644, 11.02700730097044, 21.086643886380074, -37.02745528576291, 58.691923388744186, 62.626937462820294 
-160.7953858900983, 10.708905252368467, 21.08691602865245, -37.37641343823171, 59.117764417423935, 62.62266976922185 
-161.69176771490723, 10.393737936034768, 21.087178196219533, -37.72109377463877, 59.5454762059386, 62.618418192572236 
-162.5883380860296, 10.081582609034191, 21.087430502067573, -38.06135119344408, 59.97502048183914, 62.61418449432247 
-163.48514808744886, 9.772516021276877, 21.0876730675824, -38.39703091366839, 60.40635868992846, 62.60997044365723 
-164.38224706082568, 9.466614407828034, 21.08790602227014, -38.72796768694651, 60.839451964426836, 62.605777816386485 
-165.27968258968457, 9.163953480115168, 21.088129503469037, -39.05398493431025, 61.274261098261704, 62.601608393819575 
-166.17750048408183, 8.864608416034326, 21.08834365605287, -39.37489379916155, 61.71074650916709, 62.59746396162164 
-167.07574476578878, 8.568653848958396, 21.08854863212622, -39.69049210678247, 62.1488682022356, 62.59334630865372 
-167.9744576540271, 8.27616385565287, 21.088744590712153, -40.00056321944758, 62.5885857285181, 62.58925722579787 
-168.87367955179624, 7.987211943106164, 21.08893169743265, -40.304874774731545, 63.029858139209004, 62.585198504767824 
-169.77344903283918, 7.701871034283692, 21.089110124182138, -40.60317729290745, 63.472643934891465, 62.581171936906856 
-170.67380282929315, 7.420213452817111, 21.089280048794787, -40.89520263736986, 63.91690100924094, 62.57717931197363 
-171.57477582007817, 7.142310906642279, 21.089441654705688, -41.18066230974762, 64.3625865864989, 62.573222416917176 
-172.47640102007662, 6.868234470601533, 21.089595130606675, -41.459245558737756, 64.80965715192683, 62.569303034642594 
-173.37870957016327, 6.598054568028247, 21.08974067009706, -41.73061727863131, 65.25806837433258, 62.56542294276802 
-174.2817307281435, 6.331840951334118, 21.089878471329754, -41.9944156699342, 65.70777501962277, 62.5615839123746 
-175.18549186066437, 6.069662681621514, 21.090008736653346, -42.25024963032071, 66.1587308541725, 62.55778770675054 
-176.09001843616136, 5.811588107346158, 21.090131672250497, -42.497695839278016, 66.61088853661325, 62.55403608013028 
-176.9953340189075, 5.5576848420574105, 21.090247487773187, -42.73629549407583, 67.06419949641472, 62.55033077643043 
-177.90146026423315, 5.308019741246092, 21.090356395975302, -42.96555064795834, 67.51861379737079, 62.54667352798343 
-178.80841691498398, 5.062658878332152, 21.090458612342978, -43.18492009350898, 67.97407998378434, 62.543066054270376 
-179.71622179928775, 4.821667519827101, 21.09055435472329, -43.39381472474015, 68.43054490677079, 62.539510060654194 
179.3751091703006, 4.585110099708493, 21.090643842951692, -43.59159230031499, 68.88795352765348, 62.53600723711473 
178.46556199620528, 4.353050193046274, 21.090727298478708, -43.77755151705516, 69.34624869488819, 62.53255925698656 
177.5551245937179, 4.12555048892339, 21.09080494399645, -43.95092528708836, 69.80537089031206, 62.52916777570167 
176.6437867872975, 3.902672762695372, 21.090877003065298, -44.11087309309542, 70.26525793973765, 62.52583442953716 
175.7315403052158, 3.6844778476361872, 21.090943699741405, -44.256472273465185, 70.72584468197775, 62.52256083437072 
174.81837877247895, 3.4710256060199183, 21.09100525820541, -44.3867080619278, 71.1870625892504, 62.51934858444379 
173.9042977019626, 3.2623748996903466, 21.091061902392823, -44.50046217339495, 71.64883933053204, 62.51619925113493 
172.98929448369623, 3.0585835601725533, 21.091113855626716, -44.5964996880232, 72.11109826773666, 62.51311438174379 
172.07336837223713, 2.8597083583831493, 21.09116134025299, -44.673453937365004, 72.57375787252624, 62.51009549828769 
171.15652047207735, 2.6658049739975955, 21.09120457727894, -44.729809037928106, 73.03673104900433, 62.50714409631181 
170.23875372102853, 2.476927964535279, 21.09124378601535, -44.7638796461037, 73.4999243443868, 62.50426164371415 
169.32007287153613, 2.293130734224822, 21.091279183722776, -44.773787421225975, 73.96323702582293, 62.50144957958706 
168.4004844698761, 2.1144655027139265, 21.091310985262407, -44.75743357674679, 74.42655999664979, 62.498709313076034 
167.47999683319355, 1.9409832736896535, 21.091339402751938, -44.71246676850116, 74.88977451924043, 62.496042222257586 
166.55862002434705, 1.772733803476577, 21.091364645226943, -44.63624540807878, 75.35275070390684, 62.49344965303699 
165.63636582452673, 1.6097655696814765, 21.09138691830828, -44.52579329138949, 75.81534571359532, 62.490932918067514 
164.71324770362196, 1.4521257399545284, 21.091406423875682, -44.3777471891299, 76.27740162178445, 62.48849329569217 
163.78928078831842, 1.2998601409378043, 21.091423359748404, -44.18829474693421, 76.73874284529848, 62.48613202890931 
162.86448182791176, 1.1530132274726774, 21.091437919372893, -43.95310067687011, 77.1991730536931, 62.48385032436297 
161.93886915783057, 1.011628052138231, 21.091450291518214, -43.66721877579922, 77.65847143114834, 62.481649351359565 
161.01246266086963, 0.8757462351932515, 21.09146065997953, -43.32498676708064, 78.1163881337225, 62.47953024091177 
160.08528372613964, 0.7454079349943247, 21.091469203289915, -42.91990031968505, 78.57263874217846, 62.47749408481071 
159.15735520574822, 0.6206518189625063, 21.091476094441113, -42.44446184990315, 79.0268974555597, 62.475541934727666 
158.2287013692336, 0.5015150351706263, 21.09148150061339, -41.88999886923464, 79.47878869968957, 62.47367480134618 
157.29934785577933, 0.38803318462270503, 21.09148558291497, -41.24644575588371, 79.92787673338684, 62.471893653525846 
156.369321624248, 0.28024029429607844, 21.09148849613137, -40.502082010846294, 80.37365271826606, 62.47019941749847 
155.4386509010763, 0.17816879101559877, 21.091490388484917, -39.64321954958922, 80.81551856997885, 62.46859297609759 
154.50736512608424, 0.08184947622809452, 21.091491401404788, -38.65383183438562, 81.25276672487591, 62.467075168022696 
153.57549489625703, -0.008688498256658295, 21.091491669308006, -37.515119517430726, 81.68455473493582, 62.465646787138155 
152.64307190756688, -0.09341765349375013, 21.091491319391377, -36.20501225847743, 82.10987335299686, 62.464308581808915 
151.7101288949075, -0.17231220553761903, 21.091490471435016, -34.69761714252022, 82.52750651758515, 62.463061254272304 
150.77669957022377, -0.24534808642303707, 21.091489237617413, -32.9626450933354, 82.93598146122666, 62.46190546004796 
149.84281855892328, -0.3125029639354721, 21.091487722342467, -30.96488499735382, 83.33350719772413, 62.46084180738593 
148.90852133466527, -0.3737562601163642, 21.09148602207865, -28.663861617267305, 83.71790018869284, 62.4598708567538 
147.97384415262755, -0.4290891684520294, 21.091484225210518, -26.01392186900159, 84.08649759186804, 62.45899312036329 
147.03882398135912, -0.4784846696982631, 21.091482411902756, -22.965158195279162, 84.4360620706525, 62.458209061737215 
146.10349843333034, -0.5219275462962286, 21.09148065397698, -19.465796810873883, 84.76268905571456, 62.457519095317 
145.16790569430017, -0.5594043953389621, 21.091479014801408, -15.466903436802255, 85.06173915658829, 62.45692358611145 
144.23208445162186, -0.5909036400517214, 21.091477549193588, -10.930329343742823, 85.32783576207233, 62.45642284938706 
143.29607382161598, -0.6164155397534893, 21.091476303336282, -5.840392783655381, 85.55498759220647, 62.45601715040043 
142.3599132761408, -0.635932198271178, 21.091475314706603, -0.21837479153325448, 85.7369063990469, 62.455706704172705 
141.42364256849532, -0.649447570782391, 21.09147461201858, 5.863734362965527, 85.86756803209373, 62.45549167530704 
140.48730165879215, -0.6569574690670507, 21.091474215179144, 12.27674515192909, 85.941985805782, 62.45537217784834 
139.5509306389394, -0.658459565152801, 21.09147413525756, 18.842048293484456, 85.95703463571064, 62.45534827518641 
138.61456965737383, -0.6539533933436699, 21.09147437446856, 25.35584294639287, 85.91205523306347, 62.455419980001835 
137.67825884368628, -0.643440350626064, 21.09147492616886, 31.623024892046434, 85.80899034529668, 62.45558725425541 
136.7420382332832, -0.6269236954510136, 21.091475774867394, 37.48764825227107, 85.65199208895767, 62.455850009220335 
135.80594769222657, -0.604408544896122, 21.091476896249024, 42.849180283707746, 85.44667117177707, 62.45620810555778 
134.87002684239351, -0.5759018702154395, 21.091478257211836, 47.66242930405744, 85.19926929819167, 62.456661353435386 
133.93431498709708, -0.5414124907900899, 21.09147981591786, 51.92648215175675, 84.91598063176333, 62.45720951268878 
132.9988510373058, -0.5009510664970369, 21.091481521857276, 55.66993712108904, 84.60251501752988, 62.457852293025596 
132.0636734385989, -0.45453008851798254, 21.091483315925846, 58.937561372462746, 84.26388635295095, 62.4585893542721 
131.12882009898942, -0.4021638686145496, 21.091485130515668, 61.78047949935292, 83.90436106922581, 62.45942030666183 
130.19432831774503, -0.3438685269005771, 21.09148688961901, 64.2499533729851, 83.52749938926145, 62.46034471116621 
129.26023471533168, -0.2796619781460331, 21.09148850894503, 66.39395273987516, 83.13623929077076, 62.46136207986632 
128.3265751646005, -0.20956391665145868, 21.09148989604946, 68.25559294329047, 82.73299243860441, 62.46247187636586 
127.39338472333387, -0.1335957997354537, 21.091490950476757, 69.87269381162325, 82.31973598837587, 62.463673516244405 
126.46069756826024, -0.051780829881347946, 21.09149156391486, 71.27794697464931, 81.89809334281307, 62.464966367550495 
125.52854693064229, 0.03585606440717617, 21.091491620362095, 72.49937246833964, 81.4694019916218, 62.46634975133425 
124.59696503353591, 0.12928824898880606, 21.091490996306153, 73.56088051906421, 81.03476901277958, 62.46782294221842 
123.66598303081184, 0.22848740564961484, 21.09148956091484, 74.48283993433033, 80.59511579829254, 62.46938516900751 
122.7356309480242, 0.33342355479189834, 21.091487176238356, 75.28260529161412, 80.15121380592637, 62.47103561533427 
121.80593762520328, 0.4440650791854924, 21.091483697422866, 75.97498366213219, 79.70371303559176, 62.47277342034233 
120.87693066164353, 0.5603787487182673, 21.091478972935054, 76.57263677159246, 79.25316469748616, 62.474597679404866 
119.94863636274857, 0.6823297460802101, 21.091472844797348, 77.0864219540052, 78.80003928191641, 62.476507444877754 
119.02107968898979, 0.8098816933138496, 21.091465148833528, 77.52567843716128, 78.34474100290055, 62.478501726886904 
118.09428420702528, 0.9429966791622468, 21.091455714924425, 77.89846641844086, 77.88761938493514, 62.4805794941484 
117.16827204302015, 1.0816352871445218, 21.091444367273272, 78.21176618514492, 77.42897859684267, 62.48273967482063 
116.24306383820065, 1.2257566242878561, 21.09143092468048, 78.47164382989186, 76.96908500482944, 62.48498115738748 
115.31867870666726, 1.3753183504441058, 21.0914152008274, 78.68338924008904, 76.50817331341537, 62.48730279157169 
114.39513419548499, 1.530276708118877, 21.091397004568684, 78.85163116742557, 76.0464515823093, 62.489703389276755 
113.47244624706077, 1.6905865527403694, 21.091376140232907, 78.98043338476126, 75.58410534478085, 62.49218172555692 
112.55062916381254, 1.856201383295522, 21.091352407931105, 79.07337524176887, 75.12130100464115, 62.494736539613726 
111.62969557512568, 2.0270733732610213, 21.09132560387258, 79.13361934096473, 74.658188651393, 62.497366535818195 
110.70965640658727, 2.203153401757434, 21.09129552068796, 79.16396856471145, 74.19490440395163, 62.50007038475735 
109.79052085148217, 2.3843910848549923, 21.091261947758618, 79.16691427928873, 73.73157237063255, 62.502846724303836 
108.87229634452741, 2.5707348069608766, 21.091224671552443, 79.1446772111501, 73.26830629536809, 62.50569416070758 
107.95498853781817, 2.7621317522184823, 21.09118347596521, 79.09924222069414, 72.80521094621028, 62.50861126970817 
107.03860127894995, 2.9585279358507357, 21.091138142667326, 79.03238797938374, 72.34238329123487, 62.511596597666674 
106.12313659127979, 3.159868235380616, 21.091088451455253, 78.94571237756819, 71.87991349831398, 62.51464866271565 
105.20859465628165, 3.3660964216639444, 21.091034180607434, 78.84065434516937, 71.41788578836157, 62.517765955925995 
104.2949737979489, 3.5771551896708047, 21.090975107243974, 78.71851264914461, 70.95637916618803, 62.5209469424896 
103.38227046919151, 3.7929861889542895, 21.090911007689826, 78.58046213516886, 70.49546804872311, 62.524190062916134 
102.47047924017272, 4.013530053746756, 21.09084165784084, 78.42756780212108, 70.03522280684979, 62.527493734242896 
101.55959278852644, 4.2387264326261125, 21.090766833532303, 78.26079703334361, 69.57571023425331, 62.53085635125634 
100.64960189139356, 4.468514017696916, 21.090686310909458, 78.0810302555673, 69.11699395439044, 62.534276287723934 
99.74049541921379, 4.7028305732328715, 21.090599866799426, 77.88907025268078, 68.65913477481338, 62.53775189763504 
98.83226033120658, 4.941612963730226, 21.090507279084203, 77.6856503254217, 68.20219099655512, 62.541281516449544 
97.9248816724741, 5.184797181323386, 21.09040832707412, 77.47144145816799, 67.74621868503141, 62.54486346235265 
97.018342572657, 5.432318372516921, 21.090302791881278, 77.24705862917821, 67.29127190788326, 62.548496037515086 
96.11262424607392, 5.684110864190236, 21.090190456792573, 77.01306637994905, 66.83740294433447, 62.55217752935654 
95.20770599327426, 5.940108188834, 21.09007110764167, 76.7699837420863, 66.38466246993251, 62.55590621181184 
94.3035652039346, 6.200243108979539, 21.089944533179565, 76.51828860561979, 65.93309971995578, 62.55968034659811 
93.40017736102831, 6.464447640785361, 21.089810525443152, 76.25842160054368, 65.48276263428063, 62.56349818448159 
92.49751604619988, 6.7326530767469235, 21.089668880121398, 75.9907895531322, 65.03369798609285, 62.56735796654315 
91.59555294627512, 7.004790007498761, 21.089519396918583, 75.71576856994153, 64.5859514964842, 62.57125792544076 
90.69425786084057, 7.280788342680279, 21.089361879914083, 75.43370679509434, 64.13956793668547, 62.575196286668174 
89.79359871082674, 7.560577330838835, 21.089196137918382, 75.14492688023579, 63.69459121944319, 62.57917126980796 
88.8935415480316, 7.844085578346594, 21.089021984824658, 74.84972820126522, 63.25106448083998, 62.58318108977811 
87.99405056552332, 8.13124106730939, 21.08883923995559, 74.54838885144268, 62.80903015368266, 62.58722395807103 
87.09508810886297, 8.421971172448806, 21.088647728404883, 74.24116743661398, 62.36853003343276, 62.591298083983354 
86.19661468809167, 8.71620267694035, 21.088447281373153, 73.9283046949956, 61.929605337525814, 62.59540167583549 
85.29858899042856, 9.013861787193362, 21.08823773649746, 73.61002496112175, 61.49229675881677, 62.599532942180055 
84.40096789363015, 9.314874146560063, 21.08801893817449, 73.28653749111233, 61.05664451379448, 62.603690092997724 
83.50370647996407, 9.619164847963614, 21.08779073787648, 72.9580376643118, 60.62268838612771, 62.607871340879434 
82.6067580507548, 9.926658445436802, 21.087552994459845, 72.62470807452385, 60.19046776603536, 62.61207490219401 
81.71007414146248, 10.237278964565292, 21.08730557446583, 72.28671952248743, 59.76002168591321, 62.616298998239834 
80.81360453725932, 10.550949911831234, 21.087048352412978, 71.94423191986505, 59.33138885259757, 62.62054185637999 
79.91729728907363, 10.86759428285474, 21.086781211080904, 71.59739511382145, 58.904607676600705, 62.62480171115933 
79.02109873007474, 11.187134569533054, 21.086504041785034, 71.24634964022734, 58.4797162986136, 62.62907680540281 
78.12495349257749, 11.509492766078512, 21.0862167446419, 70.8912274126145, 58.05675261353766, 62.6333653912942 
77.22880452534889, 11.834590373958688, 21.08591922882471, 70.53215235321088, 57.63575429227596, 62.637665731433685 
76.33259311130557, 12.162348405743336, 21.085611412808813, 70.16924097168727, 57.21675880149002, 62.64197609987452 
75.43625888559433, 12.49268738786496, 21.08529322460662, 69.80260289663303, 56.799803421503285, 62.64629478313646 
74.53973985405462, 12.825527362300948, 21.084964601991857, 69.43234136423905, 56.384925262513846, 62.650620081196514 
73.64297241206643, 13.16078788718732, 21.084625492712643, 69.05855366819071, 55.97216127926032, 62.65495030845517 
72.74589136379203, 13.498388036375417, 21.084275854693278, 68.68133157435338, 55.56154828426937, 62.65928379467793 
71.84842994182729, 13.838246397944497, 21.083915656224274, 68.30076170346223, 55.153122959799674, 62.663618885911205 
70.95051982728197, 14.180281071685, 21.0835448761405, 67.91692588469886, 54.746921868584685, 62.66795394537171 
70.052091170316, 14.5244096655684, 21.083163503987148, 67.52990148274625, 54.342981463466266, 62.67228735430911 
69.15307261116376, 14.870549291221534, 21.08277154017325, 67.13976170065348, 53.94133809600086, 62.67661751284077 
68.25339130168486, 15.21861655842456, 21.082368996112557, 66.74657586061248, 53.54202802411233, 62.68094284075844 
