# MEX_intpoint_lon [deg], MEX_intpoint_lat [deg], MEX_intpoint_angle [deg], TGO_intpoint_lon [deg], TGO_intpoint_lat [deg], TGO_intpoint_angle [deg] 
-138.30803214059438, 19.34357442735665, 21.104642226120536, -27.66360357637953, 48.8170741021597, 62.736115349903045 
-139.22017097381223, 18.977931425879365, 21.10516517451452, -28.0802267927521, 49.18919036750501, 62.731918716205655 
-140.13070799474076, 18.613226181329956, 21.105678399623972, -28.494247046684045, 49.56405440820244, 62.72770015411332 
-141.0397320303301, 18.249548738463503, 21.10618175681578, -28.90562043912322, 49.941630090306724, 62.72346098021143 
-141.9473307070119, 17.88698851290015, 21.106675113233624, -29.314301123600004, 50.32188121031895, 62.719202538542085 
-142.85359041856879, 17.52563430628279, 21.10715834781368, -29.720241168562822, 50.704771494150286, 62.71492620014997 
-143.7585962954442, 17.165574320790327, 21.107631351285992, -30.123390410617723, 51.090264595530265, 62.71063336259433 
-144.662432175374, 16.806896172966038, 21.108094026161744, -30.523696297928563, 51.4783240938315, 62.70632544942819 
-145.56518057522806, 16.449686906822652, 21.10854628670633, -30.92110372296386, 51.86891349128068, 62.702003909644226 
-146.46692266395794, 16.094033006188145, 21.108988058898372, -31.31555484369729, 52.26199620952191, 62.69767021708812 
-147.36773823655415, 15.740020406258026, 21.109419280374823, -31.70698889228265, 52.657535585495644, 62.693325869839285 
-148.26770568892283, 15.3877345043223, 21.109839900362076, -32.095341970127, 53.055494866591935, 62.68897238955986 
-149.16690199360107, 15.037260169636644, 21.110249879593503, -32.48054682817893, 53.455837205032935, 62.68461132081141 
-150.06540267623458, 14.688681752409664, 21.110649190213213, -32.86253263113003, 53.858525651434576, 62.68024423034097 
-150.96328179274977, 14.342083091879571, 21.111037815666485, -33.24122470409482, 54.2635231474918, 62.67587270633568 
-151.86061190715947, 13.997547523455358, 21.111415750576914, -33.61654426018709, 54.670792517726106, 62.67149835764746 
-152.75746406994674, 13.6551578848993, 21.111783000610362, -33.98840810724546, 55.080296460226755, 62.66712281298763 
-153.6539077969793, 13.31499652152913, 21.11213958232618, -34.35672833177748, 55.4919975363102, 62.66274772009218 
-154.5500110489122, 12.977145290419898, 21.112485523015664, -34.721411957984735, 55.90585815901307, 62.6583747448586 
-155.44584021104413, 12.641685563587034, 21.11282086052808, -35.08236057950159, 56.321840580325066, 62.65400557045452 
-156.341460073597, 12.308698230133778, 21.113145643084597, -35.439469961220716, 56.739906877056775, 62.649641896398855 
-157.23693381239667, 11.978263697347552, 21.11345992908018, -35.7926296082877, 57.16001893522618, 62.645285437616366 
-158.13232296993624, 11.650461890731641, 21.113763786873925, -36.141722299020195, 57.58213843283274, 62.64093792346651 
-159.02768743681148, 11.3253722529598, 21.11405729456805, -36.48662357813762, 58.00622682087394, 62.63660109674649 
-159.9230854335214, 11.003073741743346, 21.114340539775792, -36.82720120627221, 58.43224530244033, 62.63227671267067 
-160.81857349263404, 10.683644826601583, 21.114613619378638, -37.163314561260755, 58.86015480970655, 62.62796653782593 
-161.7142064413218, 10.367163484528206, 21.114876639273106, -37.49481398618514, 59.289915978612434, 62.62367234910465 
-162.61003738427692, 10.053707194548052, 21.115129714107557, -37.82154007852535, 59.721489121003486, 62.61939593261572 
-163.5061176870214, 9.743352931160056, 21.115372967009268, -38.14332291410356, 60.15483419397047, 62.615139082574885 
-164.40249695963206, 9.436177156664318, 21.11560652930217, -38.45998119871779, 60.589910766095116, 62.610903600175256 
-165.29922304090468, 9.132255812372591, 21.115830540215732, -38.77132133947583, 61.02667798027101, 62.60669129243879 
-166.1963419829867, 8.83166430870387, 21.116045146585165, -39.077136426824396, 61.465094512725116, 62.60250397105011 
-167.09389803651243, 8.534477514168012, 21.11625050254364, -39.3772051171108, 61.9051185278165, 62.59834345117345 
-167.99193363627793, 8.240769743242927, 21.1164467692066, -39.67129040418323, 62.34670762813064, 62.59421155025386 
-168.89048938749778, 7.950614743152384, 21.1166341143489, -39.95913826701316, 62.789818799323, 62.59011008680393 
-169.78960405268901, 7.664085679553697, 21.116812712075003, -40.24047617856762, 63.23440834908917, 62.58604087917697 
-170.68931453923207, 7.381255121146816, 21.11698274248266, -40.51501145914047, 63.68043183955122, 62.5820057443279 
-171.58965588766034, 7.102195023218342, 21.117144391320757, -40.78242945501757, 64.12784401224846, 62.578006496562985 
-172.49066126073492, 6.8269767101362335, 21.117297849641435, -41.04239152065388, 64.57659870480238, 62.57404494627962 
-173.39236193336296, 6.555670856813216, 21.117443313447236, -41.29453277941224, 65.02664875818867, 62.57012289869749 
-174.29478728342022, 6.28834746915955, 21.11758098333359, -41.538459634280045, 65.47794591338811, 62.56624215258223 
-175.19796478354257, 6.025075863547525, 21.117711064127136, -41.77374699575186, 65.93044069600101, 62.56240449896279 
-176.1019199939513, 5.765924645313236, 21.117833764520423, -41.99993518913066, 66.3840822871893, 62.55861171984398 
-177.00667655637972, 5.510961686323034, 21.117949296703326, -42.21652649773246, 66.83881837905186, 62.554865586915355 
-177.9122561891707, 5.260254101634868, 21.11805787599188, -42.422981291718784, 67.29459501223303, 62.55116786025769 
-178.8186786836146, 5.013868225287002, 21.118159720454788, -42.61871368434162, 67.75135639320426, 62.54752028704853 
-179.72596190159868, 4.771869585249455, 21.118255050538263, -42.8030866480393, 68.20904468822955, 62.54392460026799 
179.36587822536046, 4.534322877575602, 21.118344088689618, -42.97540651179423, 68.66759979051821, 62.540382517406336 
178.45682769562976, 4.301291939794223, 21.11842705898013, -43.134916748122066, 69.12695905646059, 62.536895739174255 
177.5468744354473, 4.0728397235847495, 21.118504186727666, -43.28079094260295, 69.58705700611762, 62.533465948218044 
176.63600829531305, 3.8490282667808233, 21.118575698119535, -43.41212482049977, 70.04782498226389, 62.53009480783983 
175.72422104471403, 3.6299186647499857, 21.118641819836142, -43.52792718313892, 70.50919076123607, 62.52678396072544 
174.811506365115, 3.4155710411994824, 21.118702778675832, -43.6271095806303, 70.97107810757338, 62.52353502768038 
173.89785984114897, 3.2060445184608217, 21.11875880118155, -43.70847451629171, 71.43340626290326, 62.520349606375824 
172.98327894994253, 3.001397187307811, 21.118810113269642, -43.77070194074028, 71.89608935766263, 62.517229270105595 
172.0677630485155, 2.8016860763652525, 21.118856939861438, -43.812333748711296, 72.35903573197135, 62.514175566555764 
171.15131335919554, 2.6069671211674375, 21.118899504518037, -43.831755937667964, 72.82214714919334, 62.51119001658816 
170.2339329529931, 2.4172951329277486, 21.11893802907873, -43.82717802224707, 73.28531788230478, 62.508274113039015 
169.31562673088516, 2.2327237670826423, 21.118972733303682, -43.79660922021815, 73.74843364897824, 62.50542931953422 
168.39640140296177, 2.0533054916750046, 21.11900383452108, -43.73783083113493, 74.21137036608631, 62.50265706932246 
167.47626546539132, 1.8790915556436127, 21.11903154727958, -43.64836411493176, 74.67399268786944, 62.49995876412749 
166.55522917516885, 1.7101319570869413, 21.11905608300612, -43.525432840528296, 75.13615228397231, 62.49733577302094 
165.63330452261465, 1.5464754115708932, 21.119077649669883, -43.365919509697285, 75.59768580351529, 62.4947894313169 
164.71050520159662, 1.3881693205511985, 21.11909645145262, -43.16631406427631, 76.0584124587973, 62.49232103948941 
163.7868465774567, 1.2352597399822811, 21.11911268842585, -42.922653650452844, 76.51813114644798, 62.48993186211446 
162.86234565262743, 1.0877913491851188, 21.119126556235475, -42.630451738120485, 76.97661700400168, 62.48762312683711 
161.9370210299308, 0.9458074200471123, 21.119138245793938, -42.28461457388542, 77.43361727487367, 62.485396023365624 
161.01089287355924, 0.8093497866275194, 21.119147942980693, -41.87934258512502, 77.88884632323237, 62.48325170249327 
160.08398286774602, 0.6784588152420018, 21.11915582835108, -41.408013959849605, 78.34197960064016, 62.48119127514907 
159.15631417313773, 0.5531733750996948, 21.119162076854145, -40.86304722873282, 78.79264631661917, 62.47921581147879 
158.2279113808917, 0.4335308095658867, 21.119166857559748, -40.235739324816656, 79.24042050327886, 62.47732633995691 
157.29880046452587, 0.3195669081228038, 21.119170333395303, -39.516075394008894, 79.68481008753311, 62.47552384653094 
156.36900872955914, 0.21131587910001604, 21.11917266089251, -38.692506757530936, 80.1252434913333, 62.47380927379892 
155.43856476098514, 0.1088103232449688, 21.11917398994441, -37.75169420298877, 80.5610531701828, 62.47218352022103 
154.50749836863267, 0.012081208202655997, 21.11917446357308, -36.678215741900374, 80.99145537563656, 62.470647439366644 
153.5758405304712, -0.0788421560282642, 21.119174217708277, -35.45424201020241, 81.4155252979615, 62.469201839196884 
152.6436233339301, -0.16393214059729463, 21.119173380977365, -34.05919004473333, 81.83216663328704, 62.46784748138463 
151.7108799153047, -0.24316282019877972, 21.119172074506707, -32.46937949380973, 82.24007457246289, 62.46658508067185 
150.77764439733252, -0.31650999430247106, 21.119170411734853, -30.657737770208495, 82.63769131654827, 62.4654153042656 
149.84395182502783, -0.38395120715993414, 21.119168498237812, -28.59363687066804, 83.02315364841212, 62.464338771273084 
148.90983809987065, -0.44546576653147985, 21.119166431566548, -26.243000133075203, 83.39423310534784, 62.46335605217687 
147.97533991245268, -0.5010347610816798, 21.11916430109693, -23.568896695880504, 83.74827133312456, 62.4624676683502 
147.0404946736885, -0.5506410763946916, 21.119162187892424, -20.53294321713624, 84.08211685553499, 62.46167409161398 
146.1053404447064, -0.5942694095643514, 21.11916016457958, -17.097936906041582, 84.39207542853406, 62.46097574383481 
145.16991586553868, -0.6319062823177329, 21.1191582952366, -13.232193182772992, 84.67389469232874, 62.46037299656563 
144.2342600827361, -0.6635400526348626, 21.119156635295017, -8.915934845450511, 84.92281402140483, 62.4598661707287 
143.29841267603535, -0.6891609248313407, 21.11915523145478, -4.14959358734832, 85.13371840733579, 62.459455536341636 
142.36241358421293, -0.7087609580750152, 21.11915412161259, 1.037121233824205, 85.30143251116469, 62.45914131228666 
141.4263030302618, -0.7223340733122001, 21.119153334803922, 6.577947531146049, 85.42116601241501, 62.45892366612351 
140.49012144603003, -0.72987605858338, 21.119152891158514, 12.368266613383872, 85.48906719520298, 62.45880271394621 
139.5539093964634, -0.7313845727131792, 21.119152801869546, 18.2719900116102, 85.50277127439115, 62.45877852028361 
138.6177075035947, -0.7268591473637708, 21.119153069176516, 24.13745672872574, 85.46178399456736, 62.45885109804422 
137.68155637042472, -0.7163011874458814, 21.11915368636181, 29.818349370746553, 85.36756638844065, 62.459020408505225 
136.7454965048392, -0.699713969886106, 21.119154637760946, 35.192848237294456, 85.22328882428661, 62.45928636134553 
135.809568243707, -0.6771026407542281, 21.119155898786627, 40.1752488269094, 85.03334463905591, 62.45964881472309 
134.87381167730265, -0.6484742107587047, 21.119157435966336, 44.71822476140194, 84.8027809230163, 62.460107575396286 
133.9382665741966, -0.6138375491235164, 21.119159206993675, 48.80780432902972, 84.53678929582041, 62.46066239888901 
133.00297230675312, -0.5732033758639427, 21.119161160793094, 52.45478829582799, 84.24033487865223, 62.46131298969985 
132.06796777737418, -0.5265842524835744, 21.11916323759828, 55.685838026922454, 83.91793593981059, 62.46205900155425 
131.13329134562403, -0.4739945711192289, 21.11916536904374, 58.53606293994065, 83.57356709423547, 62.46290003770011 
130.19898075636564, -0.41545054216496075, 21.1191674782697, 61.043680903750776, 83.21064653777447, 62.463835651246136 
129.26507306903602, -0.35097018041025596, 21.11916948004015, 63.24659019050947, 82.83207175802171, 62.464865345542414 
128.3316045881826, -0.28057328973196105, 21.11917128087369, 65.18041053521087, 82.44027796815146, 62.465988574603024 
127.39861079537779, -0.20428144638296922, 21.119172779187316, 66.87753188874608, 82.0373031347687, 62.46720474357 
126.46612628262326, -0.12211798092473543, 21.119173865452648, 68.36679697150453, 81.62485071956995, 62.46851320921809 
125.53418468734952, -0.03410795885384966, 21.11917442236462, 69.67355114480827, 81.20434597241845, 62.469913280499654 
124.6028186291095, 0.05972184002349804, 21.119174325022293, 70.81988471714222, 80.77698437442159, 62.47140421912939 
123.67205964805908, 0.159342943412617, 21.119173441121553, 71.82495995385796, 80.3437722904279, 62.47298524020763 
122.74193814531006, 0.2647252094873027, 21.119171631159503, 72.70536023210852, 79.90556056731764, 62.47465551288168 
121.8124833252335, 0.3758368509207718, 21.119168748650235, 73.47542745835368, 79.46307205438926, 62.47641416104494 
120.88372313978482, 0.49264445992602524, 21.119164640351663, 74.14757125454526, 79.0169240375003, 62.478260264071885 
119.95568423491393, 0.6151130342393524, 21.119159146503208, 74.73254351615383, 78.56764649111439, 62.48019285758907 
119.0283918991163, 0.7432060039785038, 21.11915210107395, 75.23967751895438, 78.11569692769727, 62.48221093428052 
118.1018700141729, 0.8768852593060519, 21.119143332020894, 75.67709361103107, 77.66147249505083, 62.48431344472718 
117.17614100811993, 1.0161111788266177, 21.11913266155717, 76.05187480918691, 77.20531985416592, 62.48649929827868 
116.25122581048039, 1.1608426586461222, 21.119119906429543, 76.37021601975334, 76.74754326847241, 62.48876736395707 
115.3271438097836, 1.311037142020112, 21.119104878205114, 76.63755053701107, 76.28841125069478, 62.491116471391095 
114.40391281338935, 1.4666506495180132, 21.11908738356676, 76.85865717910772, 75.82816204448388, 62.4935454117801 
113.48154900962754, 1.627637809629636, 21.119067224616817, 77.0377510376942, 75.36700816241515, 62.49605293888601 
112.56006693225648, 1.7939518897404834, 21.11904419918873, 77.17856041740446, 74.90514015753826, 62.498637770053186 
111.63947942723551, 1.965544827402483, 21.119018101166258, 77.28439216235047, 74.44272977033349, 62.50129858725375 
110.71979762180163, 2.142367261827421, 21.11898872080972, 77.35818722586735, 73.97993256487784, 62.50403403815803 
109.80103089583302, 2.324368565530729, 21.11895584508892, 77.40256804226249, 73.5168901457557, 62.50684273722876 
108.8831868554759, 2.511496876054547, 21.118919258022313, 77.41987900472871, 73.05373202955647, 62.50972326683756 
107.9662713090059, 2.7036991276996543, 21.118878741021934, 77.41222113840242, 72.59057723072316, 62.512674178402406 
107.0502882448888, 2.9009210831975443, 21.11883407324368, 77.38148187716615, 72.12753561028609, 62.515693993545256 
106.13523981200134, 3.1031073652549632, 21.118785031942384, 77.32936070236762, 71.6647090270362, 62.518781205267906 
105.22112630196658, 3.310201487905179, 21.11873139283142, 77.25739127658494, 71.2021923234881, 62.52193427914524 
104.30794613355555, 3.522145887601647, 21.118672930446067, 77.1669606017997, 70.74007417318815, 62.52515165453437 
103.39569583910132, 3.7388819539920104, 21.118609418510452, 77.05932564528551, 70.27843781124179, 62.52843174579819 
102.484370052869, 3.9603500603120074, 21.118540630307383, 76.93562780514445, 69.81736166614547, 62.531772943542244 
101.57396150132168, 4.1864895933411175, 21.118466339050705, 76.79690552818116, 69.35691990792544, 62.53517361586348 
100.66446099521899, 4.417238982864139, 21.118386318259557, 76.64410534357276, 68.89718292507347, 62.53863210960933 
99.75585742348362, 4.652535730584829, 21.118300342134265, 76.47809153482127, 68.4382177407118, 62.5421467516461 
98.84813774876774, 4.892316438440432, 21.11820818593308, 76.29965463831601, 67.98008837673052, 62.545715850134954 
97.94128700465113, 5.136516836268023, 21.118109626349543, 76.10951892830005, 67.52285617324772, 62.54933769581448 
97.03528829440008, 5.385071808776431, 21.11800444188977, 75.90834902415052, 67.0665800695926, 62.5530105632881 
96.13012279121672, 5.637915421779514, 21.11789241324934, 75.69675573584715, 66.61131685205592, 62.55673271231527 
95.22576973990701, 5.894980947649581, 21.117773323689057, 75.4753012466582, 66.15712137285821, 62.56050238910497 
94.32220645989587, 6.1562008899518075, 21.11764695940944, 75.24450371787867, 65.70404674412322, 62.5643178276103 
93.41940834951839, 6.421507007223486, 21.117513109923006, 75.00484138846646, 65.25214451008748, 62.56817725082251 
92.51734889151639, 6.6908303358639944, 21.117371568424296, 74.75675623227329, 64.80146480031247, 62.572078872063514 
91.61599965967102, 6.964101212104328, 21.117222132156815, 74.50065722695503, 64.35205646627111, 62.576020896275345 
90.71533032650262, 7.241249293027271, 21.11706460277665, 74.23692328132209, 63.9039672033498, 62.58000152130542 
89.81530867197203, 7.522203576611709, 21.116898786712014, 73.96590586164793, 63.45724366002597, 62.58401893918604 
88.91590059311753, 7.8068924207773245, 21.116724495518596, 73.68793135211894, 63.01193153574204, 62.588071337407314 
88.0170701145662, 8.095243561407838, 21.116541546229953, 73.40330318004384, 62.56807566879417, 62.592156900181706 
87.11877939985865, 8.387184129333846, 21.11634976170255, 73.1123037325198, 62.12572011537988, 62.5962738096995 
86.22098876353071, 8.682640666258056, 21.11614897095509, 72.81519608788457, 61.68490822080118, 62.6004202473736 
85.32365668389721, 8.981539139608502, 21.115939009501624, 72.5122255823777, 61.245682683691506, 62.60459439507263 
84.4267398164877, 9.283804956307012, 21.115719719677916, 72.2036212299273, 60.8080856140259, 62.60879443634118 
83.53019300808594, 9.589362975442823, 21.115490950960815, 71.88959701080763, 60.372158585579115, 62.613018557605926 
82.63396931132995, 9.89813751984292, 21.11525256027998, 71.5703530430313, 59.93794268341523, 62.617264949366735 
81.73801999983257, 10.210052386532933, 21.115004412321777, 71.24607664870445, 59.50547854692107, 62.6215318073714 
80.84229458378678, 10.525030856084447, 21.114746379824762, 70.91694332615093, 59.07480640883524, 62.62581733377306 
79.94674082602462, 10.84299570084622, 21.114478343866406, 70.58311763736954, 58.645966130671034, 62.63011973826941 
79.05130475850241, 11.16386919205904, 21.114200194140746, 70.24475401930471, 58.21899723488468, 62.634437239222414 
78.15593069919036, 11.487573105855473, 21.113911829226506, 69.90199752646143, 57.79393893410111, 62.638768064757656 
77.26056126934856, 11.81402872814766, 21.113613156845297, 69.55498451156306, 57.37083015767224, 62.64311045384255 
76.36513741117747, 12.143156858408094, 21.113304094109733, 69.20384325022036, 56.94970957581404, 62.64746265734214 
75.46959840583496, 12.474877812349837, 21.112984567760822, 68.84869451493574, 56.530615621539056, 62.65182293905207 
74.57388189181788, 12.809111423514462, 21.112654514394592, 68.48965210320121, 56.11358651057906, 62.65618957670717 
73.67792388371176, 13.145777043777422, 21.112313880677508, 68.12682332394742, 55.698660259470564, 62.66056086296574 
72.78165879131672, 13.484793542782475, 21.111962623550326, 67.7603094461591, 55.28587470195718, 62.66493510636802 
71.88501943916505, 13.826079306317906, 21.111600710420245, 67.39020611308088, 54.87526750384714, 62.669310632268356 
70.98793708644973, 14.169552233649299, 21.111228119340982, 67.01660372508928, 54.466876176449084, 62.673685783740225 
70.09034144739115, 14.515129733824836, 21.110844839180512, 66.6395877939995, 54.06073808869678, 62.67805892245391 
69.19216071207353, 14.86272872097093, 21.110450869776308, 66.25923927129969, 53.65689047806174, 62.68242842952524 
68.29332156779031, 15.212265608597216, 21.11004622207776, 65.8756348525626, 53.255370460343, 62.686792706335886 
