# MEX_intpoint_lon [deg], MEX_intpoint_lat [deg], MEX_intpoint_angle [deg], TGO_intpoint_lon [deg], TGO_intpoint_lat [deg], TGO_intpoint_angle [deg] 
-139.468529312969, 19.62626089337129, 21.879053383335098, -27.33196146353512, 39.63769256605735, 62.92924351294392 
-140.35570129599708, 19.218279324734517, 21.879667157047276, -27.58365124732888, 40.052117281706565, 62.92454611911594 
-141.24124957396674, 18.811464432162374, 21.880268402331165, -27.82991212091542, 40.469002284733, 62.91981003887489 
-142.12528051891687, 18.405910713454315, 21.88085695114946, -28.070636660107915, 40.888287258247985, 62.9150367631188 
-143.0078987820832, 18.001712004142583, 21.881432650644573, -28.305713327329325, 41.30991127271202, 62.910227830466035 
-143.8892072760019, 17.598961502898053, 21.88199536315349, -28.535026251775193, 41.73381275151827, 62.90538482671787 
-144.7693071575467, 17.197751795827863, 21.882544966204275, -28.758454999010734, 42.15992943405206, 62.900509384264716 
-145.6482978117493, 16.79817487963238, 21.883081352494294, -28.97587432941882, 42.5881983360901, 62.89560318143533 
-146.526276836267, 16.400322183590294, 21.88360442985023, -29.187153944884987, 43.01855570739353, 62.89066794179061 
-147.40334002636877, 16.004284590343083, 21.884114121170057, -29.39215822307383, 43.450936986337936, 62.88570543336084 
-148.27958136032686, 15.610152455451116, 21.88461036434693, -29.59074593861891, 43.8852767514115, 62.88071746782805 
-149.15509298510682, 15.218015625695763, 21.88509311217528, -29.78276997051558, 44.321508669400366, 62.875705899652964 
-150.02996520226267, 14.82796345610291, 21.885562332239214, -29.96807699497281, 44.759565440066226, 62.87067262514776 
-150.90428645395156, 14.440084825664712, 21.886018006783363, -30.146507162946882, 45.19937873710757, 62.86561958149495 
-151.77814330899284, 14.054468151737865, 21.88646013256647, -30.317893761546916, 45.64087914517929, 62.86054874571262 
-152.6516204489055, 13.67120140309751, 21.88688872069785, -30.482062858469593, 46.08399609273009, 62.855462133567485 
-153.52480065386717, 13.290372111627484, 21.88730379645699, -30.638832928589615, 46.52865778039807, 62.85036179843588 
-154.39776478854546, 12.912067382628223, 21.887705399096596, -30.78801446180279, 46.974791104686915, 62.84524983011363 
-155.270591787763, 12.53637390372532, 21.888093581629317, -30.929409551191743, 47.42232157662371, 62.84012835357597 
-156.14335864196374, 12.163377952362303, 21.88846841059842, -31.062811460561065, 47.8711732350789, 62.834999527688126 
-157.01614038245683, 11.793165401862707, 21.888829965832866, -31.188004170369442, 48.32126855440437, 62.82986554386733 
-157.88901006642314, 11.425821726047317, 21.889178340186948, -31.304761901073203, 48.772528346022106, 62.8247286246981 
-158.7620387616756, 11.061432002393996, 21.88951363926502, -31.4128486128901, 49.22487165356914, 62.819591022501044 
-159.63529553117272, 10.70008091372824, 21.889835981131522, -31.51201748099481, 49.67821564117657, 62.814455017856694 
-160.5088474172925, 10.341852748434324, 21.8901454960069, -31.60201034517303, 50.13247547443159, 62.80932291808571 
-161.3827594258794, 9.986831399177944, 21.8904423259496, -31.682557132988443, 50.58756419353945, 62.80419705568659 
-162.25709451008666, 9.635100360132588, 21.89072662452472, -31.753375255562947, 51.04339257817088, 62.79907978673213 
-163.13191355403916, 9.286742722703634, 21.890998556459795, -31.814168975135743, 51.49986900344468, 62.793973489226076 
-164.0072753563531, 8.941841169745427, 21.891258297287976, -31.864628743657025, 51.956899286460974, 62.7888805614217 
-164.88323661355145, 8.600477968268384, 21.891506032979283, -31.90443051179218, 52.41438652276208, 62.78380342010331 
-165.75985190342257, 8.262734960634786, 21.89174195956035, -31.93323500786675, 52.87223091206065, 62.778744498832495 
-166.63717366837471, 7.928693554244103, 21.89196628272309, -31.950686986479287, 53.33032957253449, 62.77370624616091 
-167.51525219884525, 7.5984347097100295, 21.892179217422907, -31.956414446755872, 53.7885763429483, 62.768691123810804 
-168.39413561682895, 7.272038927534241, 21.89238098746697, -31.950027820524316, 54.24686157182194, 62.76370160482549 
-169.2738698595956, 6.949586233283463, 21.892571825092993, -31.93111913106075, 54.70507189282517, 62.758740171691045 
-170.15449866367203, 6.631156161279049, 21.892751970539173, -31.899261123516023, 55.16308998554054, 62.75380931443149 
-171.03606354916934, 6.31682773681056, 21.892921671605848, -31.854006368679897, 55.6207943206995, 62.74891152867898 
-171.91860380454023, 6.006679456887647, 21.89308118320938, -31.79488634240184, 56.07805888896332, 62.74404931372113 
-172.8021564718565, 5.700789269546813, 21.893230766928905, -31.721410483778715, 56.53475291229222, 62.73922517052724 
-173.68675633270107, 5.399234551732662, 21.893370690546554, -31.63306523615979, 56.99074053692422, 62.73444159975553 
-174.57243589477196, 5.102092085776285, 21.89350122758167, -31.529313076134844, 57.44588050697115, 62.729701099743444 
-175.4592253793014, 4.809438034496015, 21.89362265681972, -31.40959153698648, 57.90002581763809, 62.725006164483 
-176.34715270939353, 4.5213479149493985, 21.8937352618365, -31.27331223463401, 58.353023347083976, 62.720359281583285 
-177.23624349939035, 4.2378965708681475, 21.89383933051814, -31.119859905906317, 58.80471346597259, 62.71576293022236 
-178.1265210453757, 3.959158143811186, 21.89393515457776, -30.948591471092282, 59.25492962381619, 62.711219579090745 
-179.01800631693055, 3.6852060430744484, 21.8940230290692, -30.75883513516966, 59.703497911296346, 62.70673168432837 
-179.91071795025374, 3.416112914399435, 21.894103251898525, -30.549889544950375, 60.15023659786292, 62.70230168745795 
179.19532775723548, 3.1519506075261727, 21.89417612333404, -30.321023022647875, 60.594955644071554, 62.69793201331592 
178.30011685069695, 2.8927901426396154, 21.894241945515297, -30.071472900119048, 61.03745618833039, 62.69362506798469 
177.40363771995453, 2.638701675762528, 21.89430102196183, -29.800444982307468, 61.47753000799797, 62.68938323672696 
176.50588109974927, 2.38975446315107, 21.894353657082306, -29.507113173262777, 61.914958955120724, 62.685208881925554 
175.60684006804613, 2.14601682475341, 21.89440015568459, -29.19061930357706, 62.34951436752911, 62.68110434103081 
174.70651004227926, 1.9075561067950173, 21.89444082248744, -28.850073204196683, 62.78095645654709, 62.677071924517456 
173.80488877342438, 1.6744386435580736, 21.89447596163464, -28.484553078360328, 63.2090336732227, 62.67311391385395 
172.90197633778808, 1.4467297184259524, 21.89450587621179, -28.093106230881848, 63.633482055779766, 62.6692325594862 
171.9977751264084, 1.224493524267233, 21.8945308677669, -27.67475022211656, 64.05402456194155, 62.66543007883818 
171.092289831964, 1.007793123237198, 21.894551235834943, -27.228474522655613, 64.47037039090817, 62.66170865433193 
170.18552743309388, 0.7966904060778855, 21.894567277467374, -26.753242753970117, 64.88221430110505, 62.65807043142887 
169.2774971760359, 0.5912460510011575, 21.894579286766984, -26.247995609692303, 65.28923593137753, 62.654517516695556 
168.36821055349597, 0.3915194822422176, 21.894587554428764, -25.711654561703924, 65.69109913511419, 62.651051975895015 
167.4576812806686, 0.19756882837365433, 21.89459236728747, -25.14312646432686, 66.08745133884962, 62.64767583210756 
166.54592526833477, 0.009450880473140707, 21.89459400787235, -24.54130917816875, 66.47792293924374, 62.644391063881585 
165.6329605929719, -0.1727789497601466, 21.894592753969718, -23.905098341902402, 66.862126754958, 62.641199603418336 
164.7188074638181, -0.3490666718426901, 21.89458887819391, -23.233395424608087, 67.23965755284537, 62.63810333479151 
163.80348818684237, -0.5193597581980295, 21.894582647567166, -22.52511719223423, 67.61009167100892, 62.63510409220487 
162.8870271255816, -0.6836071856012956, 21.894574323109047, -21.779206717972336, 67.97298676461904, 62.632203658289455 
161.96945065881465, -0.8417594762745669, 21.894564159435898, -20.994646056414584, 68.32788170383118, 62.629403762443005 
161.05078713505463, -0.9937687385295452, 21.894552404370867, -20.170470683587244, 68.67429665660043, 62.626706079213065 
160.13106682385157, -1.1395887068535238, 21.894539298565004, -19.305785777494716, 69.01173339248942, 62.62411222672678 
159.2103218639073, -1.2791747813342769, 21.89452507513001, -18.399784374763946, 69.33967584650476, 62.62162376516828 
158.2885862080178, -1.4124840663195934, 21.894509959282953, -17.451767386507566, 69.65759098431056, 62.61924219530657 
157.36589556486842, -1.5394754082075537, 21.894494168003657, -16.461165389043824, 69.96493001153924, 62.616968957075194 
156.44228733772016, -1.6601094322645331, 21.894477909704985, -15.42756202154979, 70.2611299699742, 62.61480542820592 
155.51780056003648, -1.7743485783692223, 21.894461383916585, -14.35071872284688, 70.5456157617003, 62.61275292291788 
154.5924758281134, -1.8821571355825433, 21.89444478098253, -13.230600424296746, 70.81780263845997, 62.610812690664325 
153.6663552307864, -1.9835012754454489, 21.89442828177315, -12.067401687810852, 71.07709918697756, 62.608985914938096 
152.73948227630032, -2.07834908390905, 21.894412057411497, -10.861572641839514, 71.32291083152168, 62.60727371213786 
151.81190181644092, -2.166670591804525, 21.894396269014887, -9.613843930812095, 71.55464386217129, 62.60567713049643 
150.88365996803722, -2.248437803763395, 21.89438106745168, -8.325249764204182, 71.77170998099965, 62.60419714907241 
149.95480403195606, -2.3236247255026887, 21.894366593113766, -6.997148041891647, 71.97353133879288, 62.60283467680696 
149.02538240972075, -2.3922073893934073, 21.89435297570504, -5.631236456227514, 72.15954601238026, 62.601590551646396 
148.09544451789682, -2.4541638782353736, 21.894340334046067, -4.229563442750234, 72.32921384793451, 62.60046553973227 
147.1650407003974, -2.509474347166275, 21.894328775895286, -2.7945328844965274, 72.48202256985726, 62.59946033465992 
146.23422213887036, -2.558121043637928, 21.89431839778695, -1.3289015811111684, 72.6174940296273, 62.598575556805955 
145.30304076133805, -2.6000883253983638, 21.89430928488598, 0.164231319509483, 72.7351904461066, 62.59781175272653 
144.37154914926933, -2.6353626764240907, 21.894301510860075, 1.6814434617048617, 72.8347204703077, 62.597169394626356 
143.43980044326932, -2.6639327207530052, 21.89429513776896, 3.2190171880353127, 72.91574489557256, 62.596648879899796 
142.50784824758063, -2.6857892341747456, 21.894290215971328, 4.772976005426412, 72.97798183032053, 62.59625053074413 
141.57574653359382, -2.7009251537418506, 21.89428678404914, 6.339128974938982, 73.02121115635079, 62.595974593846044 
140.6435495425709, -2.7093355850718512, 21.894284868749807, 7.913121956809707, 73.0452781117868, 62.5958212401413 
139.71131168778828, -2.7110178074172286, 21.894284484946013, 9.490494245738903, 73.05009586391971, 62.595790564648205 
138.7790874563091, -2.7059712764872703, 21.89428563561341, 11.066738805523084, 73.03564697228148, 62.59588258637509 
137.84693131059655, -2.6941976250128783, 21.894288311826152, 12.637364088015872, 73.00198368420165, 62.59609724830168 
136.91489759018, -2.6757006610525718, 21.894292492770294, 14.197955321152758, 72.94922705108971, 62.59643441743469 
135.98304041358648, -2.6504863640450287, 21.894298145775025, 15.744233184477904, 72.87756490050748, 62.596893884937536 
135.0514135807478, -2.6185628786205974, 21.894305226361666, 17.272107954859614, 72.78724874343565, 62.597475366333605 
134.12007047609183, -2.579940506191387, 21.89431367831045, 18.777727483484938, 72.67858973494496, 62.598178501783245 
133.18906397252317, -2.5346316943463325, 21.894323433744933, 20.25751773076692, 72.5519538373076, 62.599002856434076 
132.25844633649427, -2.482651024084572, 21.89433441323389, 21.708215004610388, 72.4077563558056, 62.59994792084382 
131.32826913436256, -2.424015194927051, 21.894346525910656, 23.12688948330343, 72.24645602842725, 62.601013111475204 
130.39858314022342, -2.358743007952794, 21.89435966960969, 24.510960022856626, 72.06854885152822, 62.60219777126267 
129.46943824540185, -2.2868553468123736, 21.894373731020163, 25.858200621212273, 71.8745618154085, 62.603501170249366 
128.5408833697778, -2.208375156777247, 21.894388585856486, 27.166739217663892, 71.66504670823394, 62.60492250629434 
127.61296637511197, -2.1233274218891105, 21.89440409904531, 28.435049733280827, 71.4405741257857, 62.606460905848415 
126.68573398052969, -2.031739140278889, 21.894420124929063, 29.661938403975338, 71.2017278002136, 62.60811542479784 
125.75923168031032, -1.9336392977300272, 21.894436507485484, 30.846525526271435, 70.94909933526596, 62.60988504937491 
124.83350366411972, -1.8290588395653182, 21.89445308056302, 31.98822373646513, 70.68328341006857, 62.61176869713384 
123.90859273981293, -1.7180306409408734, 21.894469668131734, 33.08671388968317, 70.4048734897769, 62.613765217991045 
122.98454025892173, -1.6005894756346881, 21.8944860845493, 34.14191951070524, 70.11445806028526, 62.61587339532794 
122.06138604493175, -1.4767719834209647, 21.89450213484194, 35.153980667417656, 69.81261738622223, 62.61809194715526 
121.13916832444073, -1.346616636124097, 21.89451761499973, 36.12322798309966, 69.4999207769371, 62.620419527337255 
120.2179236612786, -1.2101637024493703, 21.89453231228595, 37.05015736596228, 69.17692433406309, 62.622854726873925 
119.29768689365699, -1.0674552116892528, 21.894546005560112, 37.9354059015907, 68.8441691463029, 62.62539607523977 
118.37849107440448, -0.9185349164065049, 21.8945584656142, 38.77972923190288, 68.50217989196963, 62.62804204177744 
117.46036741433132, -0.7634482541962955, 21.89456945552168, 39.58398063647474, 68.15146380710364, 62.63079103714405 
116.5433452287557, -0.6022423086310088, 21.894578730998802, 40.349091940326105, 67.79250997622808, 62.63364141480893 
115.62745188721138, -0.434965769491743, 21.894586040777742, 41.076056296831, 67.4257889035688, 62.63659147260015 
114.71271276634555, -0.26166889239094576, 21.89459112699114, 41.76591283461149, 67.05175232445008, 62.63963945429849 
113.7991512060036, -0.08240345789042487, 21.894593725567386, 42.41973311173718, 66.67083321924015, 62.64278355127624 
112.88678846848782, 0.1027772697814471, 21.894593566636264, 43.038609287536154, 66.2834459953688, 62.64602190417931 
111.97564370096535, 0.29381858431042385, 21.89459037494435, 43.62364389994459, 65.88998680633996, 62.649352604650026 
111.06573390099071, 0.49066437907324806, 21.89458387027972, 44.175941122691036, 65.49083398013131, 62.652773697088776 
110.15707388509975, 0.6932571890102778, 21.89457376790516, 44.69659936996578, 65.08634853277924, 62.65628318045211 
109.24967626042113, 0.9015382324955276, 21.894559778999692, 45.186705114982296, 64.67687474619088, 62.65987901008531 
108.34355139924432, 1.115447453107538, 21.89454161110744, 45.64732779161817, 64.26274079224784, 62.66355909958674 
107.43870741647407, 1.3349235612070605, 21.89451896859349, 46.079515653981076, 63.84425938802699, 62.667321322702236 
106.53515014989476, 1.559904075229869, 21.894491553106146, 46.48429247632918, 63.42172846944964, 62.67116351524667 
105.63288314316064, 1.7903253626059548, 21.894459064044774, 46.86265498454044, 62.995431872876466, 62.67508347705078 
104.73190763142233, 2.0261226802190544, 21.894421199032873, 47.21557091968364, 62.56564001610113, 62.67907897393092 
103.8322225294942, 2.2672302143238947, 21.894377654395594, 47.543977643757984, 62.132610571875745, 62.68314773967885 
102.93382442246225, 2.5135811198414495, 21.89432812564106, 47.84878120701724, 61.69658912854584, 62.68728747806997 
102.03670755862866, 2.7651075589560623, 21.894272307945062, 48.130855805254356, 61.25780983360221, 62.69149586488713 
101.14086384468425, 3.02174073894178, 21.89420989663819, 48.39104356384654, 60.816496016995316, 62.695770549957686 
100.24628284299878, 3.2834109491485757, 21.894140587695027, 48.630154593159396, 60.37286079192721, 62.70010915920174 
99.35295177091524, 3.5500475970830165, 21.894064078224616, 48.84896726704092, 59.927107631555366, 62.70450929668883 
98.46085550193347, 3.821579243521274, 21.893980066961653, 49.04822868258879, 59.47943092063591, 62.70896854670115 
97.5699765686668, 4.097933636596365, 21.8938882547576, 49.2286552651626, 59.03001648161369, 62.71348447580051 
96.68029516745538, 4.379037744804785, 21.893788345071346, 49.39093348776497, 58.57904207505454, 62.7180546348971 
95.79178916451885, 4.664817788881748, 21.893680044458467, 49.53572067847091, 58.126677874621215, 62.722676561317506 
94.90443410353284, 4.955199272497406, 21.893563063058732, 49.663645893588935, 57.673086917035185, 62.7273477808699 
94.01820321451346, 5.250107011730535, 21.893437115080946, 49.77531083773941, 57.218425527648726, 62.73206580990409 
93.1330674238965, 5.5494651632790815, 21.893301919284728, 49.871290815081196, 56.76284372238983, 62.736828157364194 
92.24899536569917, 5.853197251370918, 21.893157199458486, 49.95213569855737, 56.30648558694033, 62.74163232683153 
91.36595339365495, 6.1612261933412755, 21.893002684892906, 50.01837090630712, 55.84948963407448, 62.74647581855602 
90.48390559421517, 6.473474323846498, 21.89283811084949, 50.070498376346535, 55.39198914012744, 62.75135613147374 
89.6028138003134, 6.789863417687296, 21.89266321902342, 50.108997532294886, 54.93411246158333, 62.7562707652083 
88.72263760579283, 7.110314711217269, 21.892477758000112, 50.134326234349956, 54.475983332777936, 62.76121722205431 
87.84333438040015, 7.434748922315963, 21.892281483705023, 50.146921710927565, 54.0177211457024, 62.766193008940995 
86.9648592852545, 7.763086268907978, 21.892074159845883, 50.14720146740513, 53.559441212876884, 62.771195639373644 
86.08716528870296, 8.095246486013053, 21.891855558347043, 50.13556416927209, 53.101255014237005, 62.77622263535104 
85.21020318248068, 8.431148841313972, 21.89162545977516, 50.112390497713825, 52.64327042894536, 62.78127152925735 
84.33392159809684, 8.770712149232203, 21.8913836537557, 50.07804397625927, 52.18559195300507, 62.78633986572631 
83.45826702337439, 9.113854783503204, 21.891129939379812, 50.03287176762298, 51.72832090351474, 62.79142520347582 
82.583183819076, 9.460494688245623, 21.890864125600938, 49.97720544028562, 51.271555610365226, 62.79652511711157 
81.70861423555424, 9.810549387521055, 21.89058603162066, 49.91136170469511, 50.815391596138035, 62.801637198897765 
80.83449842937101, 10.163935993382426, 21.890295487263284, 49.835643119244665, 50.359921744925884, 62.806759060493306 
79.96077447983531, 10.520571212411731, 21.889992333338654, 49.750338766404475, 49.9052364607554, 62.81188833465211 
79.08737840541666, 10.8803713507489, 21.889676421992775, 49.655724899559054, 49.45142381625375, 62.817022676885585 
78.21424417999629, 11.243252317615946, 21.889347617045612, 49.552065561238386, 48.998569692162775, 62.82215976708623 
77.34130374892565, 11.609129627341506, 21.889005794315818, 49.43961317353531, 48.54675790826778, 62.8272973111108 
76.46848704486801, 11.977918399893008, 21.888650841931874, 49.318609101579234, 48.09607034627317, 62.832433042321455 
75.59572200340598, 12.349533359924543, 21.888282660629105, 49.18928419099115, 47.64658706512367, 62.837564723083915 
74.7229345784051, 12.723888834350282, 21.887901164032407, 49.05185928028101, 47.19838640923776, 62.842690146221216 
73.8500487571297, 13.100898748454485, 21.887506278924068, 48.9065456891701, 46.75154511008987, 62.84780713642197 
72.97698657511646, 13.480476620550094, 21.887097945496492, 48.7535456838295, 46.30613838154945, 62.852913551601766 
72.1036681308165, 13.862535555199557, 21.886676117589328, 48.593052920023894, 45.862240009357464, 62.85800728421692 
71.23001160002663, 14.246988235012159, 21.886240762910838, 48.42525286514068, 45.41992243509617, 62.86308626252934 
70.35593325013646, 14.633746911033722, 21.885791863243014, 48.250323200067704, 44.97925683498339, 62.86814845182205 
