# MEX_intpoint_lon [deg], MEX_intpoint_lat [deg], MEX_intpoint_angle [deg], TGO_intpoint_lon [deg], TGO_intpoint_lat [deg], TGO_intpoint_angle [deg] 
-138.2992581339461, 19.341332088153017, 21.099103677653062, -27.65733480933609, 48.87977033623295, 62.734855594823166 
-139.2115682203137, 18.976003988596116, 21.099625979148332, -28.075470294261198, 49.251446481989845, 62.73066553785737 
-140.12227691241276, 18.61161203999079, 21.100138576484945, -28.49103180393264, 49.62586996538621, 62.72645366611507 
-141.03147290699607, 18.24824624712852, 21.100641325197724, -28.9039762952508, 50.00300478454468, 62.7222212940239 
-141.9392437038917, 17.88599598606915, 21.101134092575133, -29.31425881559806, 50.38281487056002, 62.717969763329755 
-142.845675573797, 17.524950019225955, 21.101616757674858, -29.721832367333374, 50.76526408665296, 62.713700442643166 
-143.7508535275155, 17.165196509809217, 21.102089211325342, -30.126647763329224, 51.150316226782834, 62.70941472695267 
-144.65486128651742, 16.806823035588163, 21.10255135611303, -30.528653472817762, 51.53793501369168, 62.705114037105 
-145.55778125471284, 16.449916601932454, 21.10300310635555, -30.927795456743702, 51.92808409635111, 62.70079981925226 
-146.4596944913332, 16.094563654097506, 21.103444388060876, -31.32401699174338, 52.320727046779126, 62.69647354426712 
-147.3606806848254, 15.740850088719275, 21.103875138872496, -31.717258481784192, 52.71582735619124, 62.692136707124824 
-148.26081812766873, 15.38886126448655, 21.1042953080008, -32.107457256402654, 53.11334843044666, 62.68779082625427 
-149.16018369203266, 15.038682011960594, 21.10470485614069, -32.4945473543742, 53.51325358474573, 62.68343744285674 
-150.0588528062013, 14.6903966425136, 21.10510375537567, -32.87845929152995, 53.91550603753045, 62.67907812019381 
-150.95689943169486, 14.344088956359606, 21.105491989068483, -33.25911981130451, 54.32006890353455, 62.67471444284464 
-151.85439604102874, 13.999842249652641, 21.105869551738497, -33.636451616453535, 54.72690518592405, 62.67034801593292 
-152.75141359605402, 13.657739320629254, 21.10623644892603, -34.01037308021612, 55.13597776746204, 62.66598046432405 
-153.64802152683194, 13.317862474773364, 21.106592697043848, -34.38079793501567, 55.54724940062493, 62.66161343179344 
-154.54428771100095, 12.980293528983806, 21.10693832321596, -34.7476349365889, 55.96068269658861, 62.65724858016593 
-155.4402784536001, 12.6451138147258, 21.107273365104113, -35.110787501204, 56.37624011299401, 62.65288758842767 
-156.3360584673201, 12.312404180149707, 21.107597870721968, -35.470153313373494, 56.79388394039073, 62.648532151810414 
-157.23169085315882, 11.982244991161433, 21.107911898237557, -35.8256239011786, 57.213576287246646, 62.64418398084955 
-158.1272370814628, 11.654716131431067, 21.10821551576401, -36.17708417599856, 57.63527906339672, 62.639844800416114 
-159.02275697334485, 11.329897001327218, 21.108508801138978, -36.524411933072486, 58.05895396179097, 62.635516348723826 
-159.91830868246998, 11.00786651576656, 21.108791841693108, -36.86747730890985, 58.48456243838319, 62.631200376312044 
-160.81394867720977, 10.688703100969676, 21.109064734007667, -37.20614219109862, 58.91206568998389, 62.626898645004886 
-161.70973172317034, 10.372484690115556, 21.109327583661976, -37.540259575533476, 59.34142462987871, 62.622612926848504 
-162.60571086610278, 10.059288717889324, 21.1095805049707, -37.869672865486855, 59.77259986098879, 62.618345003025894 
-163.5019374152121, 9.749192113918907, 21.109823620711474, -38.19421510626643, 60.20555164632219, 62.614096662751805 
-164.39846092688313, 9.442271295098681, 21.110057061843325, -38.51370814842836, 60.64023987643204, 62.60986970214731 
-165.29532918884982, 9.138602156799331, 21.110280967216035, -38.82796173163377, 61.07662403356177, 62.6056659230958 
-166.19258820483455, 8.838260062965562, 21.110495483271073, -39.1367724802286, 61.514663152115084, 62.6014871320815 
-167.0902821796934, 8.541319835104732, 21.11070076373439, -39.43992280047458, 61.95431577504006, 62.597335139010944 
-167.98845350510283, 8.24785574017175, 21.11089696930142, -39.737179668038635, 62.39553990566192, 62.59321175601894 
-168.88714274583103, 7.9579414773574415, 21.11108426731486, -40.02829329283106, 62.838292954434536, 62.58911879626027 
-169.78638862663806, 7.6716501637895975, 21.111262831435546, -40.31299564653858, 63.2825316800079, 62.585058072687545 
-170.68622801985526, 7.389054319158108, 21.11143284130689, -40.59099883618675, 63.7282121239228, 62.58103139681733 
-171.58669593369436, 7.11022584927785, 21.111594482213334, -40.861993304743, 64.17528953814559, 62.57704057748488 
-172.48782550134382, 6.8352360286049825, 21.11174794473326, -41.12564583708271, 64.62371830454137, 62.57308741958902 
-173.3896479709093, 6.564155481724683, 21.111893424386846, -41.381597346521936, 65.07345184524986, 62.56917372282874 
-174.29219269625978, 6.297054163830871, 21.112031121279262, -41.62946041349419, 65.52444252277202, 62.565301280431754 
-175.19548712884333, 6.034001340220422, 21.112161239739788, -41.868816543726695, 65.97664152839361, 62.56147187787756 
-176.09955681053663, 5.775065564827176, 21.112283987957184, -42.099213108339335, 66.42999875735649, 62.55768729161515 
-177.0044253675966, 5.5203146578233255, 21.11239957761198, -42.3201599225214, 66.88446266893683, 62.55394928777734 
-177.91011450578247, 5.269815682318131, 21.11250822350594, -42.5311254126731, 67.33998012929189, 62.5502596208928 
-178.81664400671818, 5.0236349201866055, 21.112610143189446, -42.73153231394504, 67.79649623458447, 62.54662003259694 
-179.7240317255653, 4.781837847063251, 21.112705556587056, -42.920752830734926, 68.25395411147724, 62.54303225034327 
179.36770640992154, 4.54448910653843, 21.112794685621868, -43.09810318162932, 68.71229469159144, 62.53949798611646 
178.458556398886, 4.311652483597398, 21.112877753839182, -43.2628374371703, 69.17145645593237, 62.53601893514833 
177.5485061653375, 4.0833908773448195, 21.11295498602985, -43.41414054326953, 69.63137514457314, 62.53259677463813 
176.63754555452348, 3.8597662730597153, 21.113026607853996, -43.55112040458427, 70.09198342603682, 62.52923316247876 
175.72566632763846, 3.64083971362853, 21.113092845465317, -43.67279888009893, 70.55321051978905, 62.525929735989905 
174.81286215480048, 3.4266712704063553, 21.1131539251368, -43.77810151677511, 71.0149817640128, 62.52268811065948 
173.8991286062303, 3.21732001355868, 21.113210072888087, -43.86584581552753, 71.47721811933094, 62.51950987889523 
172.9844631415683, 3.0128439819383606, 21.11326151411507, -43.934727785837296, 71.93983559731052, 62.51639660878697 
172.06886509726885, 2.813300152554816, 21.113308473222204, -43.98330649966072, 72.40274460034549, 62.513349842881816 
171.15233567201292, 2.6187444096945707, 21.113351173258053, -44.00998630026326, 72.86584915677233, 62.51037109697279 
170.23487791008498, 2.4292315137541447, 21.113389835554475, -44.01299625517104, 73.32904603170216, 62.50746185890299 
169.31649668266257, 2.2448150698485496, 21.113424679369967, -43.99036636211789, 73.79222368988903, 62.504623587385964 
168.39719866697254, 2.0655474962602263, 21.1134559215376, -43.939899919691854, 74.25526108179993, 62.501857710844014 
167.47699232327105, 1.8914799927948818, 21.11348377611817, -43.8591413567827, 74.71802621764185, 62.49916562626571 
166.55588786961076, 1.7226625091124617, 21.11350845405871, -43.74533867268362, 75.18037448610626, 62.49654869808358 
165.63389725436326, 1.5591437131025199, 21.1135301628571, -43.595399467921034, 75.64214666458538, 62.49400825707373 
164.7110341264702, 1.4009709593746549, 21.113549106233094, -43.40583933909181, 76.10316655505127, 62.491545599278226 
163.78731380340417, 1.248190257935575, 21.113565483806237, -43.17272116334035, 76.56323816397219, 62.48916198495157 
162.86275323682415, 1.100846243125138, 21.113579490780992, -42.891583503972335, 77.02214232467941, 62.48685863753299 
161.93737097591938, 0.9589821428842169, 21.11359131763967, -42.557356023786895, 77.47963263536346, 62.48463674264455 
161.01118712844078, 0.8226397484277121, 21.113601149843447, -42.16425939619419, 77.93543055394545, 62.4824974471178 
160.08422331942717, 0.6918593843960941, 21.113609167541796, -41.705686762587675, 78.38921945067693, 62.4804418580486 
159.1565026476396, 0.5666798795586684, 21.11361554529098, -41.17406331840203, 78.840637368329, 62.47847104188235 
158.22804963972584, 0.4471385381414508, 21.113620451781628, -40.5606801663239, 79.28926817574542, 62.476586023530004 
157.29889020214367, 0.33327111185194147, 21.11362404957608, -39.85549824559075, 79.73463072064787, 62.47478778551629 
156.36905157087978, 0.22511177267218632, 21.11362649485559, -39.04691810292412, 80.17616548935182, 62.47307726716092 
155.43856225900802, 0.12269308649023716, 21.113627937177927, -38.12151181982302, 80.61321816296909, 62.471455363793964 
154.5074520021398, 0.02604598763908491, 21.11362851924549, -37.06371508348709, 81.04501932303609, 62.46992292600598 
153.5757517018251, -0.06480024559000325, 21.11362837668446, -35.8554810810492, 81.47065941185792, 62.46848075893434 
152.64349336697245, -0.14981801439430117, 21.113627637835098, -34.47590508475576, 81.88905791437354, 62.46712962158601 
151.7107100533609, -0.22898142180359463, 21.11362642355359, -32.900841634206806, 82.29892564323976, 62.46587022619796 
150.77743580132736, -0.3022662938606333, 21.113624847025626, -31.102558711056414, 82.69871906483037, 62.464703237635895 
149.8437055717167, -0.36965019958010054, 21.113623013592, -29.049510388441668, 83.08658596345549, 62.46362927283207 
148.90955518019126, -0.4311124696310357, 21.113621020586425, -26.706367640756685, 83.46030268703207, 62.46264890026269 
147.97502123000137, -0.486634213690827, 21.113618957185817, -24.034532541460887, 83.81720520650254, 62.4617626394656 
147.04014104332504, -0.5361983364222102, 21.1136169042733, -20.993474597833412, 84.15411991628369, 62.46097096059929 
146.1049525912913, -0.579789552028396, 21.113614934313862, -17.543352096650732, 84.46730629253736, 62.46027428404284 
145.16949442280622, -0.617394397345044, 21.11361311124324, -13.649457530752162, 84.75243273372297, 62.459672980038086 
144.23380559230608, -0.6490012434319856, 21.113611490369745, -9.288924245726848, 85.0046183729586, 62.45916736837423 
143.29792558656644, -0.6746003056315188, 21.113610118289525, -4.4596395731448455, 85.21858346157252, 62.45875771811505 
142.36189425069983, -0.6941836520644903, 21.1136090328151, 0.8097800438262666, 85.38894997559261, 62.45844424736924 
141.42575171347806, -0.7077452105397373, 21.113608262917413, 6.451709969929907, 85.51070884686031, 62.4582271231042 
140.4895383121185, -0.7152807738569396, 21.113607828681502, 12.357062290422693, 85.57981139031727, 62.45810646100339 
139.55329451667467, -0.7167880034876083, 21.113607741275672, 18.382415412659128, 85.59376277987336, 62.45808232536744 
138.61706085417518, -0.7122664316235359, 21.11360800293446, 24.367268012832675, 85.5520407159415, 62.45815472905929 
137.68087783265392, -0.7017174615868045, 21.113608606955157, 30.156985852132745, 85.4561882684006, 62.45832363349303 
136.7447858652166, -0.68514436660008, 21.11360953770809, 35.623746246470006, 85.30954479055254, 62.45858894866697 
135.8088251942876, -0.6625522869208951, 21.11361077066058, 40.67896564024692, 85.1167169936424, 62.45895053324054 
134.8730358161806, -0.6339482253480804, 21.113612272414485, 45.27529944063241, 84.88296649413665, 62.45940819465521 
133.93745740613534, -0.5993410411134177, 21.113614000757405, 49.40072164785589, 84.6136703058568, 62.45996168929869 
133.0021292439605, -0.5587414421760994, 21.113615904727332, 53.068946539755174, 84.31393608937107, 62.46061072271309 
132.06709014042016, -0.5121619759422289, 21.113617924690814, 56.30974823025112, 83.98838102089782, 62.461354949846175 
131.13237836449866, -0.45961701843590447, 21.11361999243439, 59.161091344387586, 83.64104135903577, 62.46219397534533 
130.19803157167428, -0.4011227619530244, 21.113622031269294, 61.663590908650534, 83.27536844659636, 62.46312735389442 
129.26408673332878, -0.33669720123276836, 21.113623956149173, 63.85704628698793, 82.89427281522379, 62.46415459059274 
128.33058006741416, -0.2663601181862044, 21.113625673800783, 65.77852718841956, 82.50018947436749, 62.46527514137545 
127.39754697049405, -0.19013306522491435, 21.113627082867364, 67.46149866598071, 82.09514804158376, 62.46648841347558 
126.46502195127043, -0.10803934723650409, 21.113628074064643, 68.93558327757542, 81.68083905087978, 62.4677937659263 
125.53303856570109, -0.020104002257243847, 21.113628530349132, 70.2266814674959, 81.25867262127689, 62.46919051010355 
124.60162935380687, 0.07364621910473725, 21.11362832709856, 71.35727140057946, 80.82982841486943, 62.47067791030779 
123.6708257782606, 0.17318287543908112, 21.1136273323042, 72.34678073759184, 80.39529721125874, 62.47225518438456 
122.74065816484337, 0.27847585743631964, 21.113625406774847, 73.21196962152351, 79.95591503303996, 62.4739215043829 
121.81115564484608, 0.3894934118626548, 21.113622404352117, 73.96729318893847, 79.5123909382239, 62.47567599725102 
120.88234609948724, 0.5062021665420945, 21.113618172136857, 74.62522914222632, 79.06532956617826, 62.47751774556812 
119.95425610641043, 0.6285671562797881, 21.113612550726305, 75.19656566850954, 78.61524940420605, 62.47944578831175 
119.0269108883167, 0.7565518496584352, 21.11360537446175, 75.69065019978915, 78.1625975951321, 62.48145912165955 
118.10033426378087, 0.8901181766382312, 21.113596471686296, 76.11560204911159, 77.7077619625895, 62.48355669982492 
117.17454860029088, 1.0292265568895522, 21.113585665012458, 76.47849298325386, 77.25108080289276, 62.48573743592478 
116.24957476954458, 1.1738359287864322, 21.11357277159912, 76.78549999560104, 76.7928508842981, 62.48800020287909 
115.32543210502747, 1.3239037789883024, 21.113557603437716, 77.04203432817559, 76.33333400567427, 62.49034383434118 
114.40213836189025, 1.479386172536893, 21.113539967646954, 77.2528503895152, 75.87276239496256, 62.492767125656904 
113.47970967913616, 1.6402377833949637, 21.11351966677595, 77.4221377520124, 75.41134317059587, 62.49526883485251 
112.55816054412108, 1.8064119253534872, 21.11349649911524, 77.55359895466333, 74.94926204364454, 62.497847683649574 
111.63750375936303, 1.9778605832341551, 21.113470259015298, 77.6505154166262, 74.48668640253798, 62.50050235850584 
110.71775041165016, 2.154534444314694, 21.113440737212134, 77.71580339603503, 74.02376789382517, 62.50323151168085 
109.79890984343069, 2.3363829299047834, 21.11340772115953, 77.75206160937437, 73.5606445899981, 62.50603376232503 
108.88098962646104, 2.5233542270016716, 21.113370995367518, 77.76161185648671, 73.0974428176377, 62.50890769759146 
107.96399553768407, 2.71539531995535, 21.11333034174661, 77.74653376979687, 72.63427870505059, 62.51185187376809 
107.04793153730185, 2.9124520220746106, 21.113285539957324, 77.70869461776908, 72.17125949735694, 62.51486481743025 
106.13279974900433, 3.114469007106526, 21.113236367764607, 77.64977493624781, 71.70848467804919, 62.51794502661144 
105.21860044230853, 3.321389840523777, 21.11318260139661, 77.57129063197878, 71.24604692888572, 62.521090971991036 
104.30533201696014, 3.5331570105556587, 21.113124015907363, 77.47461209570325, 70.78403295423799, 62.524301098098334 
103.39299098934389, 3.749711958900791, 21.11306038554299, 77.360980773882, 70.32252419137875, 62.527573824530556 
102.48157198084668, 3.9709951110612542, 21.112991484110722, 77.23152357506879, 69.86159742445493, 62.530907547184526 
101.57106770811359, 4.196945906240208, 21.1129170853505, 77.08726542650001, 69.40132531684934, 62.53430063949968 
100.66146897513364, 4.427502826747116, 21.112836963308535, 76.92914024635553, 68.941776874159, 62.53775145371189 
99.75276466709111, 4.662603426857005, 21.11275089271235, 76.75800055553489, 68.48301784799582, 62.541258322116235 
98.84494174591467, 4.902184361072552, 21.112658649346773, 76.57462591817092, 68.0251110891536, 62.544819558337544 
97.93798524745606, 5.146181411740129, 21.11256001043055, 76.3797303712362, 67.56811685732043, 62.54843345860731 
97.03187828022818, 5.3945295159735815, 21.11245475499283, 76.17396897947448, 67.11209309338608, 62.552098303045746 
96.12660202563221, 5.647162791841593, 21.11234266424925, 75.95794363168437, 66.6570956594586, 62.5558123569474 
95.22213573960212, 5.9040145637776025, 21.112223521977054, 75.73220817741907, 66.20317855092767, 62.55957387206903 
94.31845675559597, 6.165017387173047, 21.112097114888623, 75.49727298888968, 65.75039408426271, 62.56338108791885 
93.41554048886242, 6.430103072117954, 21.111963233003152, 75.25360902081663, 65.29879306369148, 62.56723223304507 
92.51336044191262, 6.69920270625474, 21.11182167001586, 75.00165143078976, 64.84842492944965, 62.571125526322895 
91.61188821112812, 6.9722466767141595, 21.111672223664147, 74.74180281406481, 64.39933788990852, 62.575059178238774 
90.71109349443634, 7.249164691104491, 21.111514696090474, 74.47443609938942, 63.951579039564194, 62.57903139216996 
89.81094409998805, 7.529885797527514, 21.111348894201257, 74.199897146206, 63.50519446459811, 62.58304036565921 
88.91140595577147, 7.814338403597538, 21.111174630021353, 73.9185070782452, 63.06022933748607, 62.58708429168195 
88.0124431201017, 8.102450294441708, 21.110991721043792, 73.63056438396355, 62.61672800193512, 62.591161359906046 
87.11401779292473, 8.394148649662608, 21.110799990574115, 73.33634681036484, 62.17473404925894, 62.595269757941885 
86.21609032788027, 8.689360059246031, 21.11059926806902, 73.03611307338522, 61.73429038715791, 62.599407672582224 
85.31861924506806, 8.988010538399468, 21.1103893894687, 72.73010440512489, 61.295439301746256, 62.6035732910304 
84.42156124446828, 9.290025541308653, 21.11017019752264, 72.41854595571182, 60.85822251356209, 62.60776480211552 
83.52487121996772, 9.595329973802015, 21.10994154210823, 72.10164806542095, 60.42268122820467, 62.61198039749394 
82.62850227394892, 9.903848204914668, 21.109703280541925, 71.77960742080009, 59.98885618216404, 62.616218272835546 
81.73240573240237, 10.215504077345745, 21.10945527788248, 71.4526081069272, 59.55678768433942, 62.62047662899392 
80.83653116052588, 10.530220916804936, 21.10919740722579, 71.12082256650878, 59.126515653683356, 62.62475367315945 
79.94082637878067, 10.847921540245768, 21.10892954999105, 70.78441247529628, 58.69807965335771, 62.629047619993685 
79.04523747937638, 11.168528262985285, 21.10865159619785, 70.44352954221937, 58.27151892174099, 62.63335669274525 
78.14970884316382, 11.49196290471146, 21.108363444733655, 70.0983162416937, 57.84687240058941, 62.637679124344665 
77.25418315691711, 11.818146794381473, 21.108065003611568, 69.74890648473362, 57.42417876061768, 62.6420131584787 
76.35860143099369, 12.147000774015687, 21.10775619021783, 69.39542623477621, 57.00347642473713, 62.646357050642195 
75.4629030173641, 12.478445201393999, 21.107436931548783, 69.03799407348409, 56.5848035891615, 62.65070906916714 
74.56702562801003, 12.812399951662629, 21.107107164436968, 68.67672172123355, 56.16819824256763, 62.65506749622773 
73.67090535369371, 13.148784417861167, 21.106766835766106, 68.31171451649779, 55.75369818347856, 62.659430628820985 
72.77447668310728, 13.487517510381513, 21.106415902674524, 67.94307185789748, 55.34134103601764, 62.663796779721906 
71.87767252241738, 13.82851765537139, 21.106054332746883, 67.57088761230237, 54.931164264167066, 62.66816427841213 
70.98042421522425, 14.171702792097289, 21.10568210419387, 67.19525049202429, 54.52320518464985, 62.67253147198233 
70.08266156296277, 14.516990369282684, 21.105299206019584, 66.81624440383585, 54.117500978542196, 62.67689672600627 
69.18431284577669, 14.864297340439522, 21.1049056381764, 66.43394877227809, 53.7140887017114, 62.68125842538721 
68.28530484390565, 15.213540158211805, 21.104501411707133, 66.04843883947832, 53.31300529416581, 62.685614975175255 
