# MEX_intpoint_lon [deg], MEX_intpoint_lat [deg], MEX_intpoint_angle [deg], TGO_intpoint_lon [deg], TGO_intpoint_lat [deg], TGO_intpoint_angle [deg] 
-138.17189838942056, 19.30868027348793, 21.01931826456105, -27.53709872033445, 49.774592568276546, 62.7169840177036 
-139.08666333950677, 18.94790813383488, 21.019831252898, -27.977585732597337, 50.13965731535982, 62.71289318416992 
-139.99983332639033, 18.588049071451625, 21.020334811049796, -28.41593035292471, 50.50745742590488, 62.70878215266379 
-140.91149516550269, 18.22919250207557, 21.020828796971287, -28.852102513691015, 50.87795866663677, 62.704652205175464 
-141.82173452683318, 17.871427218769668, 21.02131308003853, -29.28607082073069, 51.25112676765547, 62.700504649038734 
-142.73063590168584, 17.514841405964106, 21.02178754106448, -29.717802451675578, 51.62692742398567, 62.69634081649034 
-143.63828257090393, 17.159522652900346, 21.02225207230087, -30.1472630475661, 52.00532629676737, 62.69216206419863 
-144.5447565744461, 16.805557966436837, 21.022706577426387, -30.57441659717879, 52.38628901407411, 62.68796977276111 
-145.45013868220784, 16.453033783177613, 21.023150971521048, -30.999225313459192, 52.76978117134422, 62.683765346171974 
-146.35450836598667, 16.10203598088752, 21.02358518102699, -31.421649501388224, 53.15576833140902, 62.67955021125895 
-147.25794377249852, 15.752649889159505, 21.02400914369574, -31.841647416544024, 53.54421602409999, 62.67532581709033 
-148.16052169735778, 15.404960299301726, 21.024422808521923, -32.25917511354631, 53.935089745415155, 62.67109363435231 
-149.06231755994193, 15.059051473414089, 21.02482613566376, -32.67418628348818, 54.32835495622267, 62.6668551546971 
-149.96340537906744, 14.715007152625338, 21.025219096350302, -33.0866320793681, 54.723977080477184, 62.66261189006201 
-150.86385774941004, 14.372910564464199, 21.02560167277565, -33.496460928431475, 55.12192150292139, 62.65836537196001 
-151.76374581861035, 14.032844429339104, 21.025973857980297, -33.903618330217306, 55.52215356624308, 62.65411715074256 
-152.66313926500996, 13.694890966103413, 21.026335655719723, -34.308046638976094, 55.92463856765297, 62.64986879483458 
-153.5621062759719, 13.359131896684016, 21.02668708032059, -34.709684828981764, 56.32934175484635, 62.64562188994253 
-154.46071352674326, 13.025648449753408, 21.027028156524572, -35.10846824109834, 56.73622832130562, 62.64137803823615 
-155.3590261598258, 12.69452136342645, 21.027358919320186, -35.5043283087811, 57.145263400897086, 62.637138857504226 
-156.25710776482404, 12.36583088696498, 21.027679413762755, -35.89719226148692, 57.556412061708606, 62.63290598028528 
-157.1550203587489, 12.03965678147471, 21.027989694782832, -36.286982803239084, 57.96963929906934, 62.62868105297356 
-158.05282436675765, 11.716078319580706, 21.028289826983396, -36.67361776383064, 58.38491002768469, 62.62446573490122 
-158.95057860331897, 11.395174284069057, 21.02857988442592, -37.05700971985756, 58.80218907281225, 62.62026169739754 
-159.8483402537956, 11.077022965484183, 21.02885995040584, -37.43706558243876, 59.22144116039451, 62.6160706228255 
-160.74616485644333, 10.76170215867273, 21.029130117217584, -37.81368614810273, 59.64263090605414, 62.611894203596904 
-161.64410628483, 10.449289158266502, 21.02939048590951, -38.186765608890695, 60.06572280284524, 62.607734141166866 
-162.54221673068233, 10.139860753099, 21.029641166029123, -38.55619101723673, 60.49068120764058, 62.603592145008044 
-163.44054668717533, 9.833493219551215, 21.029882275358887, -38.92184170062768, 60.91747032601909, 62.599469931566055 
-164.3391449326806, 9.530262313824718, 21.030113939643023, -39.28358862040701, 61.34605419549991, 62.5953692231969 
-165.23805851499802, 9.230243263141272, 21.030336292305584, -39.64129366835697, 61.77639666694898, 62.591291747086714 
-166.13733273609628, 8.933510755870584, 21.030549474160274, -39.99480889385414, 62.20846138396033, 62.58723923415565 
-167.03701113739476, 8.640138930589156, 21.030753633112393, -40.34397565343041, 62.64221175998759, 62.58321341794643 
-167.93713548562081, 8.350201364075614, 21.03094892385324, -40.688623673459546, 63.07761095296899, 62.57921603349842 
-168.83774575928265, 8.063771058249483, 21.03113550754739, -41.028570015407304, 63.51462183715419, 62.57524881620882 
-169.73888013579975, 7.780920426062621, 21.031313551513353, -41.363617931598206, 63.953206971798096, 62.57131350068124 
-170.64057497933763, 7.501721276354424, 21.031483228898, -41.69355559772914, 64.39332856633884, 62.567411819563645 
-171.54286482939577, 7.226244797684416, 21.031644718345067, -42.018154706357215, 64.83494844161973, 62.56354550237585 
-172.44578239020143, 6.954561541157417, 21.031798203658358, -42.337168903254494, 65.27802798664929, 62.559716274328615 
-173.34935852096484, 6.686741402259138, 21.03194387346002, -42.65033204579351, 65.72252811031504, 62.5559258551345 
-174.25362222705238, 6.422853601722422, 21.032081920844224, -42.95735625933007, 66.16840918737591, 62.55217595781239 
-175.15860065213892, 6.162966665445988, 21.032212543027015, -43.25792976379464, 66.61563099795099, 62.548468287486735 
-176.0643190714004, 5.907148403490736, 21.032335940992365, -43.55171443827843, 67.06415265959482, 62.54480454018222 
-176.9708008858102, 5.655465888180374, 21.032452319135352, -43.83834308617279, 67.51393255089994, 62.5411864016156 
-177.87806761760447, 5.407985431335794, 21.032561884902538, -44.117416357227626, 67.96492822538866, 62.537615545985744 
-178.78613890698253, 5.164772560675111, 21.03266484843028, -44.3884992755323, 68.41709631424344, 62.534093634762996 
-179.6950325101086, 4.9258919954134415, 21.032761422181398, -44.65111731364736, 68.87039241617079, 62.530622315479164 
179.39523570151783, 4.691407621099257, 21.03285182058055, -44.904751942618546, 69.32477097238908, 62.52720322051948 
178.48465174025515, 4.46138246372624, 21.032936259648956, -45.14883557500837, 69.78018512436232, 62.523837965917544 
177.5732035000108, 4.235878663162289, 21.033014956638873, -45.38274580291293, 70.23658655145873, 62.52052815015488 
176.66088075236252, 4.014957445939454, 21.033088129668336, -45.60579881460146, 70.69392528517325, 62.51727535296579 
175.74767514104568, 3.798679097451195, 21.03315599735656, -45.8172418511851, 71.15214949589732, 62.51408113414952 
174.83358017474228, 3.5871029336053954, 21.03321877846061, -46.01624453765467, 71.61120524741568, 62.51094703239017 
173.91859121810992, 3.3802872719841566, 21.03327669151377, -46.20188888954757, 72.07103621332368, 62.50787456408638 
173.00270548099, 3.178289402563262, 21.033329954465994, -46.37315775590986, 72.53158334834113, 62.50486522219153 
172.08592200573878, 2.9811655580466248, 21.033378784327027, -46.52892140920175, 72.9927845059891, 62.50192047506588 
171.16824165262676, 2.7889708838729144, 21.03342339681268, -46.66792193090128, 73.45457399221614, 62.49904176534179 
170.2496670832541, 2.6017594079534625, 21.0334640059946, -46.78875496463877, 73.91688204220648, 62.49623050880365 
169.33020274193623, 2.419584010202541, 21.033500823954117, -46.88984831266981, 74.37963420463979, 62.49348809328325 
168.40985483501535, 2.2424963919227188, 21.033534060440505, -46.969436731075604, 74.84275061392407, 62.49081587757204 
167.48863130805904, 2.0705470451094667, 21.033563922534306, -47.02553212736992, 75.30614512615357, 62.48821519035146 
166.56654182091222, 1.9037852217408633, 21.033590614315926, -47.05588817216897, 75.76972428843888, 62.485687329142756 
165.64359772057296, 1.7422589031192277, 21.033614336540044, -47.057958092385995, 76.23338610339783, 62.483233559276904 
164.71981201186898, 1.5860147693327913, 21.033635286316354, -47.02884410142256, 76.69701854041193, 62.480855112886466 
163.79519932591683, 1.4350981689063997, 21.033653656796893, -46.96523652139747, 77.16049773197602, 62.47855318792001 
162.86977588635213, 1.2895530887108408, 21.033669636870457, -46.86334013625078, 77.62368577603986, 62.47632894718055 
161.9435594733255, 1.1494221242010205, 21.033683410864537, -46.71878464640124, 78.0864280422078, 62.4741835173888 
161.01656938526475, 1.014746450053454, 21.033695158255107, -46.52651522769101, 78.54854984901299, 62.47211798827267 
160.08882639841207, 0.8855657912736566, 21.03370505338464, -46.28065806670461, 79.00985233840954, 62.47013341168354 
159.16035272415007, 0.76191839484377, 21.03371326518878, -45.97435426922967, 79.47010731820363, 62.46823080074124 
158.23117196413932, 0.6438410019805464, 21.033719956932053, -45.5995536136734, 79.92905076783606, 62.46641112900741 
157.30130906329535, 0.5313688210729516, 21.033725285952777, -45.14675711640002, 80.3863745999407, 62.4646753296895 
156.37079026064274, 0.4245355013680306, 21.033729403417837, -44.60469413867367, 80.84171612840187, 62.46302429487552 
155.4396430380884, 0.32337310747234305, 21.033732454087286, -43.9599156371671, 81.29464449770516, 62.4614588748007 
154.50789606716623, 0.22791209473512478, 21.033734576089365, -43.196280027081436, 81.74464305653187, 62.45997987714694 
153.57557915380994, 0.1381812855773863, 21.033735900706095, -42.29430203637269, 82.19108628105907, 62.45858806637588 
152.64272318122033, 0.054207846829826864, 21.033736552169756, -41.23032836023967, 82.63320933096264, 62.457284163096254 
151.709360050899, -0.023982731860328187, 21.033736647470548, -39.975498368254485, 83.07006760533284, 62.456068843466404 
150.775522621927, -0.09636665849517097, 21.033736296175622, -38.494447292610225, 83.5004827066269, 62.45494273863278 
149.8412446485756, -0.16292185800928627, 21.033735600259867, -36.7437216539236, 83.9229699924058, 62.4539064342045 
148.90656071634024, -0.22362799031746447, 21.03373465394843, -34.669920100044244, 84.33564146511381, 62.45296046976554 
147.97150617649663, -0.27846646707730066, 21.033733543571454, -32.20768363262112, 84.73607645415161, 62.45210533842436 
147.0361170792835, -0.32742046712017014, 21.033732347431048, -29.277906273156162, 85.1211523718249, 62.451341486401674 
146.10043010582126, -0.37047495050767076, 21.033731135680654, -25.787038582028078, 85.48683121777273, 62.45066931265734 
145.1644824988816, -0.4076166711740262, 21.033729970217163, -21.629274687050444, 85.82790975026992, 62.450089168555984 
144.2283119926277, -0.4388341881189282, 21.033728904585654, -16.694846248300586, 86.1377720737541, 62.44960135757248 
143.2919567414487, -0.4641178751191091, 21.03372798389711, -10.889205491597139, 86.40824597506453, 62.44920613503737 
142.35545524801546, -0.48345992893114986, 21.033727244759067, -4.167708244348935, 86.62976236603983, 62.44890370792235 
141.4188462906887, -0.49685437596206716, 21.0337267152194, 3.4157708282670276, 86.79210481802454, 62.4486942346665 
140.4821688504128, -0.5042970773887159, 21.03372641472327, 11.664055956054694, 86.88596332526696, 62.448577825042975 
139.54546203723052, -0.5057857327113228, 21.0337263540832, 20.23198003372359, 86.90507773517811, 62.44855454006688 
138.60876501655568, -0.5013198817309891, 21.033726535462527, 28.69079418909761, 86.84808337427926, 62.44862439194371 
137.67211693534225, -0.49090090494547334, 21.033726952372074, 36.64121315030121, 86.71895715432196, 62.44878734405938 
136.73555684828776, -0.4745320223621105, 21.033727589680097, 43.80860594075896, 86.52576133230816, 62.44904331101076 
135.79912364420994, -0.4522182907313393, 21.03372842363552, 50.07151736579394, 86.27850305631063, 62.44939215867764 
134.8628559727339, -0.4239665992086315, 21.033729421904432, 55.43184054056895, 85.9872169721222, 62.44983370433542 
133.92679217142617, -0.38978566345743343, 21.033730543619715, 59.964552561303, 85.66082335069017, 62.45036771680869 
132.99097019351032, -0.34968601820978223, 21.033731739443855, 63.77509940777551, 85.30671125000919, 62.450993916665496 
132.05542753629587, -0.3036800083059537, 21.033732951644787, 66.9728592913236, 84.93076241855556, 62.451711976451676 
131.12020117044977, -0.25178177823854214, 21.03373411418463, 69.65806947392316, 84.53756494539094, 62.452521520965725 
130.18532747023636, -0.194007260230621, 21.033735152821315, 71.91709451717249, 84.13066974145268, 62.45342212757309 
129.25084214484667, -0.13037416088165252, 21.033735985222883, 73.82198279665609, 83.71282453407649, 62.45441332656015 
128.3167801709351, -0.06090194641860361, 21.033736521094273, 75.43186407939291, 83.28616516470265, 62.45549460152671 
127.3831757264754, 0.014388173406437294, 21.03373666231655, 76.79491906495252, 82.85236398975576, 62.45666538981756 
126.45006212604328, 0.09547326272741959, 21.03373630309826, 77.9503404893451, 82.4127420955562, 62.45792508299159 
125.51747175762658, 0.18232867823617413, 21.03373533013884, 78.93006137966246, 81.9683532052006, 62.45927302732851 
124.58543602105878, 0.2749280890637164, 21.03373362280371, 79.76019364460457, 81.52004623157049, 62.46070852437226 
123.65398526816521, 0.3732434978168344, 21.033731053310984, 80.4621911201149, 81.06851199788034, 62.4622308315108 
122.72314874470374, 0.477245262713142, 21.033727486929386, 81.05377594047815, 80.61431829890375, 62.463839162591086 
121.7929545341763, 0.5869021207552604, 21.033722782187308, 81.54967136060712, 80.15793638210256, 62.46553268856905 
120.86342950358014, 0.7021812118826343, 21.03371679109252, 81.96218028483908, 79.69976109613553, 62.46731053819347 
119.93459925115964, 0.8230481040373917, 21.033709359362355, 82.30164240799564, 79.2401263415494, 62.46917179872294 
119.00648805621438, 0.9494668190790351, 21.033700326664107, 82.57679644032609, 78.77931701401731, 62.47111551667527 
118.07911883100948, 1.0813998594812104, 21.033689526865235, 82.79506825220685, 78.31757831011645, 62.47314069860836 
117.15251307482902, 1.2188082357425574, 21.03367678829305, 82.9628011523675, 77.85512303491757, 62.475246311931436 
116.22669083020442, 1.361651494442595, 21.03366193400364, 83.08544084966586, 77.3921373841277, 62.477431285746135 
115.30167064134399, 1.509887746872994, 21.03364478205949, 83.16768479742439, 76.92878555280622, 62.47969451171598 
114.37746951478103, 1.663473698173988, 21.03362514581568, 83.21360342228895, 76.46521343467754, 62.4820348449637 
113.45410288225241, 1.8223646769053168, 21.03360283421405, 83.22673905411881, 76.00155161151304, 62.48445110499474 
112.53158456581198, 1.986514664981297, 21.033577652085096, 83.21018708203083, 75.53791778438504, 62.486942076646905 
111.60992674517632, 2.155876327899535, 21.033549400457122, 83.16666287138511, 75.07441876314564, 62.4895065110637 
110.68913992729438, 2.3304010451934376, 21.033517876872263, 83.09855721528052, 74.61115210393733, 62.49214312669168 
109.7692329181263, 2.510038941039093, 21.033482875708984, 83.00798250712438, 74.14820746452344, 62.49485061029942 
108.85021279661058, 2.694738914948063, 21.03344418851062, 82.89681136643668, 73.68566773202707, 62.497627618017944 
107.93208489079326, 2.884448672478522, 21.033401604319423, 82.7667090967911, 73.22360996604876, 62.50047277640079 
107.01485275608763, 3.079114755898397, 21.03335491001593, 82.61916107893789, 72.76210619119409, 62.503384683502816 
106.09851815562784, 3.2786825747354866, 21.033303890662882, 82.45549598573629, 72.30122406612172, 62.50636190997657 
105.18308104267513, 3.483096436151134, 21.033248329853482, 82.27690553494394, 71.84102745082953, 62.50940300018474 
104.26853954503157, 3.692299575075419, 21.03318801006344, 82.08446136082854, 71.38157688967264, 62.512506473327846 
103.35488995141156, 3.9062341840439583, 21.033122713006374, 81.87912947809473, 70.92293002427536, 62.51567082458569 
102.44212669971861, 4.124841442677937, 21.033052219992022, 81.66178272572435, 70.46514194786154, 62.51889452627114 
101.53024236717145, 4.348061546751249, 21.032976312286912, 81.43321150936578, 70.00826551042434, 62.52217602899565 
100.61922766222037, 4.575833736790623, 21.032894771476915, 81.19413310529814, 69.55235158247325, 62.5255137628444 
99.70907141819333, 4.808096326156657, 21.032807379831265, 80.94519974395978, 69.0974492837415, 62.52890613856049 
98.79976058860844, 5.044786728556194, 21.03271392066753, 80.68700565440409, 68.64360618214133, 62.532351548736635 
97.89128024408836, 5.285841484938446, 21.032614178717076, 80.42009322113782, 68.1908684673655, 62.53584836901304 
96.98361357081063, 5.531196289729945, 21.032507940490554, 80.14495838027918, 67.73928110280721, 62.53939495928033 
96.07674187042777, 5.780786016365418, 21.03239499464287, 79.86205536179557, 67.28888795887626, 62.542989664886285 
95.17064456138924, 6.034544742074539, 21.032275132337208, 79.57180086791404, 66.83973193030069, 62.546630817844964 
94.2652991815991, 6.292405771886356, 21.032148147607696, 79.27457776398187, 66.39185503959872, 62.55031673804727 
93.36068139234126, 6.554301661816308, 21.03201383771998, 78.97073834656035, 65.94529852857147, 62.55404573447127 
92.45676498340688, 6.820164241202465, 21.03187200352965, 78.66060724394146, 65.50010293938882, 62.557816106391556 
91.55352187935787, 7.089924634160621, 21.03172244983756, 78.34448399624257, 65.05630818660747, 62.56162614458605 
90.65092214686231, 7.363513280130028, 21.031564985742015, 78.02264535548503, 64.61395362126642, 62.565474132539215 
89.74893400303944, 7.640859953483754, 21.03139942498704, 77.69534734037384, 64.17307808804138, 62.569358347640375 
88.8475238247525, 7.921893782180521, 21.03122558630643, 77.36282707568898, 63.73371997630064, 62.57327706237604 
87.94665615879167, 8.206543265436544, 21.03104329376312, 77.02530444212297, 63.295917265790116, 62.57722854551522 
87.04629373288961, 8.494736290398867, 21.030852377083328, 76.68298355893542, 62.859707567574326, 62.58121106328621 
86.14639746751669, 8.786400147803155, 21.030652671985195, 76.33605411884339, 62.42512816077758, 62.58522288054395 
85.24692648840424, 9.081461546602009, 21.03044402050127, 75.98469259204197, 61.992216025596804, 62.58926226192703 
84.34783813974862, 9.379846627551021, 21.0302262712946, 75.62906331408827, 61.561007872996676, 62.593327473002816 
83.4490879980511, 9.68148097574284, 21.02999927996796, 75.26931947052515, 61.13154017144453, 62.597416781400035 
82.55062988655297, 9.9862896320808, 21.029762909365672, 74.90560398952161, 60.703849170998, 62.60152845792748 
81.65241589022858, 10.294197103686114, 21.029517029867858, 74.53805035242796, 60.27797092501878, 62.60566077767811 
80.75439637130278, 10.605127373234561, 21.029261519676457, 74.16678333094907, 59.85394130975219, 62.60981202111717 
79.8565199852641, 10.91900390722008, 21.028996265092886, 73.79191965860616, 59.4317960419838, 62.613980475153724 
78.95873369734835, 11.235749663145254, 21.028721160786787, 73.41356864325701, 59.01157069495824, 62.61816443419453 
78.0609827994726, 11.555287095639672, 21.028436110055495, 73.03183272666342, 58.59330071272376, 62.62236220117915 
77.16321092760352, 11.877538161509655, 21.028141025074092, 72.64680799641154, 58.17702142304707, 62.62657208859576 
76.26536007954925, 12.202424323723925, 21.027835827135377, 72.25858465489418, 57.762768049026, 62.63079241947645 
75.36737063316862, 12.529866554342087, 21.027520446879727, 71.86724744954168, 57.35057571951292, 62.635021528371496 
74.46918136499681, 12.859785336393847, 21.02719482451432, 71.47287606803022, 56.94047947844931, 62.639257762301455 
73.57072946929166, 13.192100664718998, 21.026858910021552, 71.07554550179246, 56.53251429320051, 62.643499481686725 
72.67195057751002, 13.52673204577963, 21.026512663356286, 70.6753263808015, 56.12671506196945, 62.647745061253424 
71.77277877822924, 13.863598496457522, 21.026156054631652, 70.27228528228595, 55.723116620360294, 62.65199289091518 
70.87314663753456, 14.202618541851448, 21.025789064293214, 69.86648501575726, 55.32175374715403, 62.65624137662999 
69.97298521989848, 14.54371021209053, 21.025411683281135, 69.45798488648609, 54.92266116935273, 62.660488941231485 
69.0722241095845, 14.886791038181482, 21.025023913180206, 69.04684093934718, 54.525873566541776, 62.66473402523414 
68.17079143261321, 15.231778046909046, 21.024625766357545, 68.63310618476025, 54.131425574615236, 62.66897508761192 
