# MEX_intpoint_lon [deg], MEX_intpoint_lat [deg], MEX_intpoint_angle [deg], TGO_intpoint_lon [deg], TGO_intpoint_lat [deg], TGO_intpoint_angle [deg] 
-139.0443232729625, 19.526879722822148, 21.58716582214779, -27.608284871599416, 43.158109480088264, 62.853404986466806 
-139.94113706053437, 19.13446831523537, 21.587745292777143, -27.912114316305303, 43.56044486169858, 62.84879816095672 
-140.8363268458173, 18.743136420449396, 21.58831332202531, -28.21131303967907, 43.965411291629316, 62.84415905898377 
-141.72999256038278, 18.352977115639682, 21.588869750653608, -28.50578563855652, 44.37295817998778, 62.839489135676104 
-142.62223261427155, 17.964082822626875, 21.589414433284503, -28.79543277615301, 44.78303453497851, 62.834789886172956 
-143.51314387188506, 17.576545329425205, 21.58994723841693, -29.080150951145125, 45.19558894016389, 62.830062845109374 
-144.4028216290609, 17.19045581086421, 21.59046804842463, -29.359832253604534, 45.61056952975689, 62.82530958605314 
-145.29135959119037, 16.805904848247096, 21.590976759538087, -29.63436410688633, 46.02792396182697, 62.82053172089385 
-146.1788498522487, 16.422982448010995, 21.59147328180958, -29.90362899450731, 46.44759938929093, 62.81573089918461 
-147.0653828746172, 16.041778059356812, 21.591957539061863, -30.16750417097607, 46.86954242854846, 62.810908807436505 
-147.95104746958674, 15.662380590817635, 21.592429468820324, -30.425861355458444, 47.29369912561128, 62.80606716836637 
-148.83593077844137, 15.284878425736993, 21.59288902222885, -30.67856640707736, 47.72001491956022, 62.801207740098114 
-149.72011825402944, 14.909359436629776, 21.593336163949555, -30.925478980554562, 48.1484346031513, 62.79633231531827 
-150.6036936427402, 14.535910998399899, 21.5937708720465, -31.166452160803964, 48.57890228037552, 62.7914427203858 
-151.48673896680964, 14.164620000390931, 21.594193137853548, -31.40133207498024, 49.01136132075986, 62.7865408143977 
-152.3693345068911, 13.795572857246702, 21.5946029658267, -31.62995748037292, 49.44575431017831, 62.78162848820971 
-153.25155878483142, 13.428855518560852, 21.5950003733809, -31.852159326413563, 49.88202299792075, 62.77670766341397 
-154.13348854660376, 13.064553477295211, 21.595385390711858, -32.06776028893283, 50.320108239745295, 62.77178029127375 
-155.01519874535416, 12.702751776948645, 21.59575806060282, -32.27657427466233, 50.7599499366144, 62.76684835161599 
-155.89676252452813, 12.343535017458947, 21.596118438216788, -32.47840589382564, 51.201486968788295, 62.76191385168275 
-156.77825120104916, 11.986987359822077, 21.59646659087446, -32.673049898500494, 51.64465712491909, 62.75697882494255 
-157.65973424853064, 11.633192529413979, 21.59680259781802, -32.86029058426084, 52.089397025756725, 62.75204532986171 
-158.5412792805068, 11.28223381800197, 21.597126549961356, -33.03990115242267, 52.53564204204143, 62.74711544863786 
-159.42295203367837, 10.934194084433688, 21.597438549626883, -33.211643030020475, 52.983326206118875, 62.742191285895714 
-160.30481635117238, 10.589155753993332, 21.59773871026939, -33.37526514443182, 53.4323821167701, 62.737274967346394 
-161.18693416582434, 10.247200816416239, 21.598027156187236, -33.530503149345925, 53.882740836701856, 62.732368638412005 
-162.0693654834962, 9.90841082255423, 21.59830402222137, -33.67707859853835, 54.33433178209071, 62.72747446281559 
-162.95216836645005, 9.572866879686098, 21.598569453442547, -33.814698063667926, 54.787082603516694, 62.72259462113858 
-163.83539891680363, 9.240649645468785, 21.598823604827064, -33.94305219205553, 55.24091905756123, 62.717731309346625 
-164.71911126009957, 8.911839320526994, 21.59906664092161, -34.06181470013769, 55.69576486827356, 62.712886737285075 
-165.60335752902606, 8.586515639680233, 21.599298735497573, -34.17064129801373, 56.15154157763643, 62.70806312714554 
-166.48818784733203, 8.264757861808798, 21.599520071195286, -34.26916854022546, 56.60816838407812, 62.70326271190519 
-167.37365031398537, 7.946644758361434, 21.599730839158678, -34.35701259762733, 57.06556196798829, 62.69848773373949 
-168.25979098762787, 7.632254600510173, 21.599931238660858, -34.4337679449271, 57.523636303095806, 62.69374044241083 
-169.14665387138595, 7.321665144959408, 21.600121476721064, -34.49900595820915, 57.98230245245894, 62.689023093633786 
-170.03428089809967, 7.014953618418845, 21.6003017677135, -34.55227341650239, 58.44146834769999, 62.68433794741903 
-170.92271191603902, 6.712196700752104, 21.600472332968618, -34.59309090123404, 58.901038549987796, 62.67968726639713 
-171.8119846751789, 6.41347050681534, 21.600633400367336, -34.62095108723177, 59.36091399113126, 62.6750733141244 
-172.70213481410917, 6.118850567002568, 21.600785203928687, -34.63531691881882, 59.82099169299483, 62.670498353371805 
-173.5931958476602, 5.828411806517018, 21.60092798339157, -34.63561966451066, 60.2811644632822, 62.6659646443993 
-174.48519915532654, 5.542228523390756, 21.601061983790938, -34.62125684389431, 60.74132056555617, 62.66147444321674 
-175.3781739705758, 5.260374365277187, 21.601187455029233, -34.59159002048999, 61.20134336117145, 62.65702999983364 
-176.27214737113223, 4.982922305044238, 21.60130465144346, -34.54594245479832, 61.66111092059282, 62.65263355649918 
-177.167144270326, 4.709944615198839, 21.60141383136843, -34.48359661237995, 62.12049560135287, 62.648287345934634 
-178.0631874096034, 4.441512841176197, 21.601515256696995, -34.4037915227631, 62.579363589674955, 62.64399358955978 
-178.96029735229274, 4.177697773530524, 21.601609192437515, -34.30571998630846, 63.03757440254655, 62.639754495715266 
-179.85849247872298, 3.918569419067059, 21.6016959062694, -34.18852562797689, 63.49498034678167, 62.63557225788294 
179.24221101720667, 3.6641969709580913, 21.601775668097183, -34.05129979936537, 63.95142593135968, 62.63144905290601 
178.34179912990749, 3.414648777889121, 21.601848749603764, -33.893078333544004, 64.40674722907978, 62.6273870392107 
177.4402600423352, 3.169992312284386, 21.60191542380335, -33.712838161318864, 64.86077118333063, 62.62338835503183 
176.53758412447786, 2.9302941376640517, 21.601975964594722, -33.50949380277235, 65.31331485555701, 62.61945511664385 
175.63376393000138, 2.695619875188805, 21.60203064631545, -33.28189375454882, 65.76418460881999, 62.61558941659945 
174.72879419095744, 2.466034169450423, 21.602079743297505, -33.02881680165764, 66.21317522271613, 62.61179332197795 
173.82267181045998, 2.241600653570306, 21.602123529425047, -32.748968292915336, 66.66006893486602, 62.60806887264488 
172.9153958532392, 2.0223819136707486, 21.602162277694795, -32.44097643195432, 67.10463440423456, 62.604418079525345 
172.00696753398566, 1.8084394527869594, 21.602196259779625, -32.10338865146953, 67.54662559174446, 62.600842922892795 
171.09739020339958, 1.599833654290534, 21.60222574559599, -31.734668157597657, 67.98578055404009, 62.59734535067526 
170.1866693318659, 1.3966237448979315, 21.602251002875725, -31.333190754637066, 68.42182014691204, 62.59392727678091 
169.27481249067824, 1.198867757340258, 21.602272296742726, -30.89724208838249, 68.85444663588224, 62.59059057944518 
168.36182933074346, 1.006622492773048, 21.602289889295196, -30.425015479867465, 69.28334221286866, 62.58733709960111 
167.4477315587001, 0.8199434830071508, 21.602304039193836, -29.914610560978463, 69.70816741981261, 62.584168639275035 
166.53253291039408, 0.6388849526439766, 21.60231500125666, -29.364032969876984, 70.12855948279787, 62.58108696000926 
165.61624912165908, 0.4634997812003855, 21.60232302606096, -28.771195417943353, 70.54413056368061, 62.578093781313925 
164.69889789635758, 0.2938394653101001, 21.602328359552832, -28.133920501282393, 70.95446594076925, 62.57519077914986 
163.7804988716464, 0.129954081090304, 21.60233124266488, -27.4499456985043, 71.35912213585468, 62.57237958444409 
162.86107358043765, -0.02810775323689895, 21.602331910942596, -26.716931071628544, 71.75762501212076, 62.56966178163987 
161.9406454110356, -0.18029891437742104, 21.602330594179843, -25.932470266663145, 72.14946787640335, 62.56703890728306 
161.01923956393824, -0.32657381056093726, 21.60232751606401, -25.094105491381328, 72.53410963013758, 62.564512448646845 
160.0968830058023, -0.46688841760760097, 21.602322893831214, -24.19934722483441, 72.9109730263342, 62.56208384239584 
159.1736044205792, -0.6012003143737233, 21.602316937932073, -23.245699478497645, 73.27944310517096, 62.55975447329186 
158.24943415783957, -0.7294687174845885, 21.602309851708473, -22.230691471839712, 73.63886589825542, 62.557525672942774 
157.3244041783145, -0.8516545152631836, 21.602301831081768, -21.151916591060747, 73.98854751108462, 62.555398718595875 
156.39854799669084, -0.9677203007644433, 21.602293064252756, -20.00707945023229, 74.3277537141578, 62.5533748319773 
155.4719006217091, -1.0776304038259001, 21.6022837314139, -18.794051746527575, 74.65571019463447, 62.55145517817945 
154.54449849362166, -1.1813509220471443, 21.60227400447423, -17.51093736976391, 74.9716036408632, 62.549640864596874 
153.61637941908108, -1.2788497506125232, 21.602264046797085, -16.1561468636826, 75.27458384936423, 62.54793293991301 
152.68758250353596, -1.3700966108736279, 21.602254012951285, -14.728480816660651, 75.56376705500165, 62.546332393138215 
151.75814808122456, -1.4550630776109337, 21.60224404847588, -13.22722106430113, 75.83824068643544, 62.54484015270098 
150.82811764286384, -1.5337226048968073, 21.602234289658885, -11.652227711310259, 76.09706973616917, 62.54345708559305 
149.89753376114308, -1.6060505504854086, 21.602224863330274, -10.004038944336926, 76.33930490294524, 62.54218399656967 
148.96644001413898, -1.6720241986587636, 21.602215886669484, -8.283969463275282, 76.56399260948646, 62.54102162740616 
148.03488090677922, -1.731622781462079, 21.602207467027696, -6.494202199758913, 76.7701869173434, 62.539970656211594 
147.102901790489, -1.7848274982657433, 21.602199701765155, -4.637866957545105, 76.95696325181761, 62.53903169680042 
146.1705487811635, -1.831621533596031, 21.602192678103705, -2.719098880404634, 77.12343371599549, 62.538205298123124 
145.23786867561637, -1.8719900731811958, 21.602186472994745, -0.7430694330995187, 77.26876362084036, 62.53749194375643 
144.30490886666132, -1.9059203181648456, 21.60218115300281, 1.2840169334039921, 77.39218870027652, 62.536892051453556 
143.37171725698965, -1.93340149744378, 21.6021767742049, 3.354965925407406, 77.49303233343889, 62.536405972755844 
142.43834217201237, -1.9544248780928573, 21.60217338210569, 5.46167962223695, 77.5707219813793, 62.53603399266515 
141.50483227183992, -1.9689837738452591, 21.602171011568778, 7.595286006935502, 77.62480398368969, 62.53577632937845 
140.57123646257682, -1.977073551602338, 21.602169686763965, 9.746308508666893, 77.6549558695077, 62.5356331340845 
139.63760380711113, -1.9786916359530704, 21.602169421130757, 11.904868597711342, 77.66099542733043, 62.53560449082271 
138.7039834355817, -1.9738375116893763, 21.60217021735808, 14.060911211697631, 77.64288594797024, 62.5356904164049 
137.7704244557065, -1.9625127243095926, 21.6021720673802, 16.204440421465808, 77.60073729118831, 62.53589086039954 
136.83697586315756, -1.944720878508494, 21.602174952388893, 18.325751652598267, 77.5348027039471, 62.53620570517888 
135.90368645216645, -1.9204676346585452, 21.602178842861893, 20.415647148075156, 77.44547160427123, 62.536634766028506 
134.97060472654334, -1.8897607032931374, 21.60218369860746, 22.46562312610912, 77.3332588052348, 62.5371777913197 
134.0377788112922, -1.8526098376086986, 21.60218946882519, 24.468019961181724, 77.19879085913115, 62.537834462743774 
133.10525636499952, -1.8090268240084943, 21.602196092182687, 26.41613024048935, 77.04279033272756, 62.53860439560872 
132.17308449317295, -1.7590254707170028, 21.602203496908427, 28.304263208178753, 76.86605887335509, 62.539487139197135 
131.2413096627, -1.7026215944992449, 21.602211600900244, 30.12776743665859, 76.66945989733192, 62.54048217718547 
130.30997761759312, -1.6398330055253858, 21.60222031184964, 31.8830162123411, 76.45390164132529, 62.541588928123765 
129.3791332961811, -1.5706794904259644, 21.602229527381485, 33.56736190864567, 76.2203211837406, 62.54280674597539 
128.44882074989997, -1.4951827935886317, 21.602239135209217, 35.179066516944, 75.96966988842503, 62.544134920715955 
127.51908306383078, -1.4133665967518934, 21.60224901330498, 36.717215616407174, 75.70290056606464, 62.545572678990816 
126.58996227912283, -1.325256496956351, 21.602259030084795, 38.18162256320904, 75.42095650444804, 62.54711918482995 
125.66149931743236, -1.2308799829181059, 21.602269044608363, 39.57272877340094, 75.12476239684244, 62.548773540419916 
124.73373390750014, -1.1302664098931963, 21.6022789067932, 40.89150485716326, 74.8152171026592, 62.55053478693093 
123.80670451397955, -1.0234469731057756, 21.60228845764297, 42.139356196103755, 74.49318810689063, 62.552401905399165 
122.8804482686198, -0.9104546798161288, 21.60229752948955, 43.3180354563506, 74.15950750214601, 62.554373817662125 
121.95500090389743, -0.7913243201078075, 21.60230594624859, 44.429563570569535, 73.81496929552871, 62.556449387346554 
121.03039668918026, -0.6660924364759978, 21.602313523688263, 45.476159936193575, 73.46032783745807, 62.558627420907044 
120.1066683694977, -0.5347972923016219, 21.60232006971075, 46.46018197128693, 73.09629717630031, 62.56090666871475 
119.18384710698066, -0.3974788392978348, 21.602325384646193, 47.38407373111019, 72.72355115729204, 62.56328582619414 
118.26196242502428, -0.2541786840173201, 21.602329261558637, 48.25032299473277, 72.34272410340378, 62.56576353500677 
117.34104215521687, -0.10494005351015216, 21.602331486563603, 49.06142605492356, 71.95441193695217, 62.56833838428021 
116.42111238706728, 0.0501922397769043, 21.602331839156896, 49.8198593590766, 71.5591736221044, 62.57100891188119 
115.50219742055378, 0.211171833768075, 21.602330092554162, 50.5280571297268, 71.1575328287087, 62.57377360573072 
114.58431972150704, 0.3779508531013155, 21.602326014040724, 51.188394119690535, 70.74997973639981, 62.5766309051598 
113.66749987982999, 0.5504799459541386, 21.60231936533141, 51.80317271256092, 70.33697291429911, 62.57957920230437 
112.75175657054882, 0.728708321260711, 21.602309902939613, 52.37461365161658, 69.918941225745, 62.58261684353706 
111.83710651767927, 0.9125837862291526, 21.602297378555328, 52.90484975999038, 69.49628571940461, 62.585742130934705 
110.92356446088375, 1.102052784068674, 21.602281539431605, 53.39592209580127, 69.06938147799598, 62.58895332377943 
110.01114312488741, 1.2970604318373713, 21.60226212877887, 53.84977806368557, 68.6385794039039, 62.5922486400916 
109.09985319161193, 1.4975505583229574, 21.602238886166592, 54.26827107623414, 68.20420792743882, 62.59562625819256 
108.18970327497978, 1.7034657418702304, 21.602211547931883, 54.65316142390143, 67.76657462860108, 62.59908431829597 
107.28069989833307, 1.9147473480709933, 21.60217984759428, 55.00611806949867, 67.32596776719276, 62.60262092412476 
106.37284747440648, 2.1313355672343004, 21.602143516276413, 55.328721133456526, 66.88265771916637, 62.60623414455287 
105.46614828778577, 2.3531694515569956, 21.602102283129792, 55.62246487904087, 66.43689831938464, 62.60992201526897 
104.56060247977987, 2.5801869519170877, 21.6020558757653, 55.88876104321384, 65.98892811264324, 62.613682540460985 
103.65620803562766, 2.8123249542150597, 21.602004020687747, 56.12894238953658, 65.53897151599814, 62.61751369451863 
102.75296077395787, 3.049519315190891, 21.60194644373393, 56.34426638511334, 65.08723989625082, 62.621413423752756 
101.85085433841569, 3.291704897647415, 21.60188287051365, 56.535918924766214, 64.63393256696021, 62.625379648129055 
100.94988019136629, 3.5388156050137445, 21.60181302685308, 56.70501804304018, 64.1792377096404, 62.62941026301436 
100.05002760958341, 3.790784415185193, 21.60173663923993, 56.8526175688496, 63.723333223923596, 62.633503140933335 
99.15128368182815, 4.047543413579564, 21.60165343526977, 56.97971068909941, 63.266387511461545, 62.63765613333392 
98.25363330822216, 4.309023825352471, 21.601563144093028, 57.08723339689253, 62.80856019824263, 62.641867072359375 
97.35705920131699, 4.575156046717949, 21.601465496861884, 57.17606780735536, 62.35000279984042, 62.646133772624694 
96.46154188876228, 4.845869675323209, 21.60136022717683, 57.24704532999982, 61.89085933390673, 62.65045403299613 
95.56705971747373, 5.121093539630253, 21.601247071531784, 57.300949691170594, 61.43126688399117, 62.654825638371044 
94.67358885920308, 5.400755727259615, 21.601125769757783, 57.33851980373267, 60.971356118525, 62.65924636145698 
93.78110331741205, 5.684783612255156, 21.600996065464084, 57.36045248392712, 60.51125176855582, 62.66371396454735 
92.88957493535463, 5.9731038812315616, 21.600857706476642, 57.36740501742527, 60.051073067570606, 62.66822620129222 
91.99897340527217, 6.265642558369509, 21.60071044527287, 57.35999757817241, 59.590934156500516, 62.672780818462535 
91.10926627860839, 6.562325029226504, 21.600554039412565, 57.338815504742776, 59.130944456766116, 62.67737555770522 
90.22041897715431, 6.863076063334051, 21.600388251964105, 57.30441143971417, 58.67120901399823, 62.68200815728827 
89.332394805034, 7.167819835555134, 21.60021285192561, 57.25730733808752, 58.211828814857924, 62.6866763538332 
88.44515496144734, 7.476479946178419, 21.60002761464025, 57.197996351081166, 57.75290107918199, 62.69137788403369 
87.55865855408696, 7.788979439728593, 21.599832322205387, 57.12694459177078, 57.29451952949461, 62.69611048635841 
86.6728626131521, 8.105240822474643, 21.59962676387493, 57.04459278906027, 56.83677463975581, 62.70087190273648 
85.78772210588457, 8.42518607862074, 21.599410736454306, 56.951357836388674, 56.37975386505702, 62.70565988022368 
84.90318995155717, 8.74873668516653, 21.59918404468764, 56.84763424142777, 55.923541853830166, 62.710472172648146 
84.01921703684854, 9.075813625426258, 21.598946501636558, 56.73379548282283, 55.468220644000084, 62.71530654223364 
83.1357522315435, 9.406337401198286, 21.598697929050108, 56.6101952797927, 55.01386984438855, 62.720160761198976 
82.25274240450281, 9.740228043578751, 21.598438157725408, 56.477168780144616, 54.56056680256402, 62.72503261333225 
81.37013243985089, 10.077405122415398, 21.598167027858402, 56.33503367198554, 54.10838676022825, 62.729919895538075 
80.48786525333611, 10.417787754399157, 21.597884389384337, 56.18409122413179, 53.657402997136515, 62.7348204193567 
79.60588180882257, 10.76129460979369, 21.597590102307546, 56.024627259937425, 53.20768696446151, 62.73973201245354 
78.72412113487927, 11.107843917803995, 21.59728403702, 55.856913068984916, 52.75930840843273, 62.74465252007775 
77.84252034143697, 11.45735347058799, 21.596966074608243, 55.68120626081057, 52.31233548501074, 62.7495798064886 
76.96101463649048, 11.809740625915582, 21.59663610714837, 55.49775156457556, 51.86683486629084, 62.75451175634831 
76.07953734282879, 12.164922308482364, 21.596294037988503, 55.30678157834199, 51.42287183927031, 62.75944627608048 
75.19801991478289, 12.522815009885749, 21.59593978201854, 55.10851747137351, 50.98051039755964, 62.76438129519235 
74.31639195498732, 12.88333478727338, 21.59557326592665, 54.90316964265225, 50.53981332656813, 62.769314767560566 
73.43458123115731, 13.246397260675046, 21.59519442844236, 54.69093833858831, 50.100842282649126, 62.77424467267879 
72.55251369289172, 13.61191760903032, 21.594803220565634, 54.472014232694974, 49.663657866649224, 62.77916901686634 
71.67011348851744, 13.979810564926174, 21.594399605781962, 54.2465789698118, 49.22831969226799, 62.78408583443713 
70.78730298199915, 14.349990408059494, 21.59398356026278, 54.014805677278815, 48.794886449600526, 62.78899318882765 
69.90400276994457, 14.722370957441251, 21.593555073051274, 53.77685944529724, 48.363415964204165, 62.79388917368343 
69.02013169874452, 15.096865562360083, 21.593114146233077, 53.53289777855593, 47.933965252002125, 62.79877191390304 
