# MEX_intpoint_lon [deg], MEX_intpoint_lat [deg], MEX_intpoint_angle [deg], TGO_intpoint_lon [deg], TGO_intpoint_lat [deg], TGO_intpoint_angle [deg] 
-138.9301376363737, 19.49923069034689, 21.51019183198587, -27.666865859289757, 44.07944876856989, 62.833874037517035 
-139.82944855438217, 19.111002437805272, 21.5107622675608, -27.98630558712493, 44.47791862398346, 62.82931074630345 
-140.7271371183766, 18.723830866542432, 21.511321542554455, -28.30137435011675, 44.879054880568155, 62.82471686740109 
-141.623301523661, 18.33780862828225, 21.511869500053763, -28.611982044640058, 45.28280949574032, 62.82009384050453 
-142.51803849608737, 17.953027722363856, 21.512405996666168, -28.918034788246384, 45.68913408469819, 62.81544314328 
-143.41144326647438, 17.569579516267464, 21.512930902534986, -29.21943469238252, 46.097979901265575, 62.810766290857615 
-144.30360954626465, 17.18755476526012, 21.51344410133837, -29.51607962171207, 46.5092978169729, 62.80606483527851 
-145.19462950428053, 16.80704363112415, 21.513945490272, -29.807862939087883, 46.92303829826727, 62.801340364896085 
-146.08459374445204, 16.42813569993253, 21.514434980015572, -30.094673235147646, 47.33915138173464, 62.79659450373249 
-146.97359128439794, 16.050919998838157, 21.514912494683088, -30.37639404142232, 47.75758664720581, 62.79182891078989 
-147.8617095347516, 15.675485011845277, 21.515377971757243, -30.652903525758084, 48.17829318860763, 62.78704527931777 
-148.7490342791314, 15.30191869453383, 21.515831362007702, -30.924074168755315, 48.60121958240726, 62.782245336035686 
-149.63564965466458, 14.93030848770866, 21.516272629393846, -31.189772419823036, 49.02631385348433, 62.77743084031264 
-150.52163813298304, 14.560741329947348, 21.516701750951675, -31.449858331333395, 49.453523438250684, 62.77260358330321 
-151.40708050161592, 14.193303669022242, 21.517118716665482, -31.704185169236304, 49.88279514482023, 62.76776538704135 
-152.2920558457142, 13.828081472173366, 21.517523529324144, -31.95259899836037, 50.314075110014194, 62.76291810349184 
-153.17664153004898, 13.465160235210597, 21.517916204362468, -32.194938240479594, 50.74730875296614, 62.75806361356089 
-154.06091318123404, 13.104624990424862, 21.518296769687783, -32.43103320306746, 51.18244072506968, 62.75320382606563 
-154.94494467012936, 12.746560313289551, 21.518665265491922, -32.66070557648715, 51.619414855987316, 62.74834067666411 
-155.82880809439183, 12.39105032793458, 21.519021744048974, -32.8837678971803, 52.058174095412085, 62.74347612674602 
-156.71257376114434, 12.038178711377107, 21.519366269499084, -33.100022974213836, 52.49866045024449, 62.73861216228528 
-157.59631016974336, 11.688028696494104, 21.519698917618566, -33.309263276324785, 52.940814916814524, 62.73375079265515 
-158.4800839946305, 11.340683073723572, 21.52001977557663, -33.5112702763647, 53.38457740774264, 62.72889404940719 
-159.3639600682618, 10.996224191482426, 21.520328941679097, -33.70581374978741, 53.82988667299447, 62.72404398501445 
-160.24800136411346, 10.654733955290629, 21.520626525099498, -33.892651023545014, 54.27668021464, 62.719202671580526 
-161.13226897977006, 10.316293825592732, 21.52091264559778, -34.07152617145523, 54.72489419477965, 62.71437219951525 
-162.01682212010815, 9.980984814269199, 21.52118743322719, -34.24216915177808, 55.17446333604678, 62.70955467617815 
-162.90171808059185, 9.64888747983202, 21.521451028029524, -34.40429488238944, 55.62532081403671, 62.70475222449096 
-163.78701223070615, 9.320081921300146, 21.521703579719347, -34.55760224856206, 56.07739814094743, 62.69996698152016 
-164.67275799755657, 8.994647770752627, 21.52194524735747, -34.70177303796078, 56.53062503964472, 62.695201097031266 
-165.55900684967125, 8.672664184558561, 21.52217619901417, -34.83647079702681, 56.98492930728471, 62.69045673201549 
-166.44580828104577, 8.354209833285339, 21.522396611422632, -34.96133960246576, 57.44023666753835, 62.685736057190766 
-167.333209795477, 8.039362890288166, 21.52260666962302, -35.07600274106635, 57.89647061036435, 62.681041251478206 
-168.22125689123695, 7.728201018986265, 21.522806566597616, -35.1800612905621, 58.353552218168694, 62.676374500455275 
-169.10999304614214, 7.420801358833047, 21.522996502897705, -35.273092593709556, 58.811399977068746, 62.67173799478745 
-169.99945970307905, 7.117240509989777, 21.52317668626237, -35.354648617196275, 59.26992957184759, 62.667133928639814 
-170.8896962560508, 6.817594516714584, 21.52334733123008, -35.42425418641704, 59.72905366303663, 62.66256449806972 
-171.78074003681306, 6.521938849481117, 21.523508658743225, -35.48140508657317, 60.18868164440255, 62.658031899402594 
-172.67262630217272, 6.2303483858435165, 21.523660895746403, -35.525566019970455, 60.648719378935375, 62.6535383275924 
-173.56538822202543, 5.942897390066782, 21.523804274778776, -35.55616840882891, 61.10906891123625, 62.64908597456794 
-174.4590568682116, 5.65965949154468, 21.523939033561234, -35.57260803239319, 61.569628153985285, 62.6446770275672 
-175.35366120427358, 5.3807076620295, 21.524065414578693, -35.57424248667225, 62.030290545930924, 62.64031366746122 
-176.24922807619964, 5.1061141917012, 21.52418366465821, -35.56038845477306, 62.49094467857751, 62.63599806706912 
-177.1457822042419, 4.835950664106037, 21.524294034543516, -35.53031877557261, 62.95147388846126, 62.631732389466094 
-178.0433461758989, 4.570287929997789, 21.52439677846632, -35.483259298449966, 63.41175581158984, 62.62751878628625 
-178.94194044015308, 4.309196080117665, 21.524492153715194, -35.41838551204864, 63.871661896279505, 62.62335939602175 
-179.84158330305667, 4.0527444169519296, 21.524580420202394, -35.33481893565286, 64.33105687025578, 62.61925634232064 
179.2577090752412, 3.801001425509382, 21.524661840029374, -35.231623262855706, 64.78979815748721, 62.61521173228438 
178.3559226819318, 3.5540347431637254, 21.524736677051344, -35.10780024891972, 65.24773523980217, 62.61122765476778 
177.4530456513556, 3.31191112860923, 21.52480519644169, -34.96228533576971, 65.70470895789353, 62.60730617868253 
176.54906826308817, 3.0746964299807793, 21.524867664256593, -34.79394301214105, 66.16055074585832, 62.60344935130642 
175.64398293821202, 2.842455552192844, 21.52492434700064, -34.60156191132807, 66.61508179294901, 62.599659196600335 
174.73778423368267, 2.615252423554576, 21.524975511193755, -34.38384965558864, 67.06811212574952, 62.595937713534404 
173.83046883470115, 2.393149961721593, 21.525021422940245, -34.139427465007174, 67.5194396035445, 62.59228687442568 
172.92203554500517, 2.1762100390475156, 21.525062347500405, -33.86682456003334, 67.96884881925372, 62.58870862328885 
172.0124852749971, 1.9644934474016327, 21.525098548865234, -33.564472401656666, 68.41610989798315, 62.58520487420224 
171.10182102762766, 1.758059862521498, 21.525130289334882, -33.2306988320314, 68.86097718504942, 62.58177750969048 
170.19004788196042, 1.5569678079720042, 21.525157829101378, -32.86372220227929, 69.30318781532259, 62.578428379126194 
169.2771729743449, 1.3612746187851306, 21.525181425836095, -32.461645604274224, 69.74246015598055, 62.57515929715217 
168.36320547713294, 1.1710364048568425, 21.525201334282627, -32.02245136074564, 70.17849211537983, 62.571972042126205 
167.44815657487672, 0.9863080141798289, 21.525217805855515, -31.543995974489448, 70.61095931185227, 62.568868354590144 
166.53203943795475, 0.8071429959929902, 21.5252310882454, -31.024005794471933, 71.0395130979979, 62.56584993576513 
165.6148691935767, 0.6335935639301379, 21.525241425031055, -30.460073725882204, 71.46377843867099, 62.56291844607461 
164.6966628941268, 0.465710559252407, 21.52524905529898, -29.849657394472217, 71.88335164460247, 62.56007550369731 
163.7774394828114, 0.3035434142499814, 21.52525421327077, -29.19007927440122, 72.29779796878057, 62.55732268315157 
162.8572197565856, 0.14714011590011844, 21.525257127939064, -28.478529404432617, 72.7066490796922, 62.55466151391236 
161.93602632634065, -0.003452830130799046, 21.525258022712322, -27.712071450051162, 73.10940043474471, 62.552093479063856 
161.01388357434328, -0.1481904350526423, 21.525257115068964, -26.887653017810305, 73.50550858912477, 62.549620013987905 
160.09081760892715, -0.28702926199551343, 21.5252546162215, -26.0021212897077, 73.89438849053343, 62.5472425050908 
159.1668562164449, -0.4199274604434396, 21.525250730790695, -25.052245213060836, 74.27541082918786, 62.54496228856953 
158.24202881049962, -0.5468447999692043, 21.525245656490657, -24.03474564400428, 74.64789953566417, 62.542780649219544 
157.31636637848362, -0.6677427031821072, 21.525239583824952, -22.94633498284959, 75.01112954688236, 62.540698819284565 
156.38990142546243, -0.7825842778015327, 21.525232695794262, -21.783767931544986, 75.36432499281457, 62.53871797735106 
155.4626679154509, -0.8913343477703866, 21.525225167615964, -20.54390501194388, 75.7066579928485, 62.53683924728778 
154.53470121013993, -0.9939594833238181, 21.52521716645597, -19.22379036218054, 76.03724828992694, 62.53506369723229 
153.6060380051401, -1.090428029930904, 21.52520885117327, -17.820745019995837, 76.35516399031864, 62.533392338625355 
152.67671626381932, -1.1807101360287964, 21.52520037207737, -16.33247634095071, 76.65942371347126, 62.531826125295 
151.74677514882148, -1.2647777794716835, 21.525191870699068, -14.757203318824857, 76.9490004844673, 62.53036595259052 
150.81625495136163, -1.342604792619628, 21.525183479574878, -13.093796317615478, 77.22282771390209, 62.52901265656842 
149.88519701840275, -1.4141668859956524, 21.525175322045246, -11.341928059793213, 77.47980759751515, 62.52776701323065 
148.9536436778284, -1.4794416704429374, 21.525167512067, -9.502230666565495, 77.71882222045889, 62.52662973781679 
148.02163816173325, -1.5384086777177417, 21.525160154040158, -7.576451216416061, 77.93874755858613, 62.52560148415015 
147.08922452796193, -1.5910493794579161, 21.525153342649418, -5.567595889126914, 78.13847042364928, 62.52468284403987 
146.15644758003455, -1.6373472044711588, 21.525147162720444, -3.480050626720904, 78.31690819789507, 62.523874346738324 
145.22335278560334, -1.6772875542917458, 21.52514168909116, -1.3196648138683094, 78.47303095154778, 62.52317645845594 
144.28998619359228, -1.7108578169596202, 21.52513698649838, 0.9062157377929111, 78.60588525065623, 62.52258958193316 
143.35639435017666, -1.7380473789804143, 21.52513310947966, 3.1887787564353642, 78.71461867197354, 62.52211405607022 
142.42262421376526, -1.7588476354306812, 21.52513010229065, 5.517847246798438, 78.79850378656512, 62.52175015561565 
141.4887230691518, -1.7732519981777766, 21.525127998838137, 7.882056422263098, 78.85696020164372, 62.52149809091343 
140.55473844100663, -1.7812559021895769, 21.52512682262867, 10.269102345289225, 78.88957320516481, 62.52135800770939 
139.6207180068817, -1.7828568099149533, 21.525126586732977, 12.666051228723427, 78.89610767086876, 62.5213299870169 
138.6867095099053, -1.7780542137216853, 21.525127293766204, 15.059691324365282, 78.87651615964612, 62.52141404504244 
137.75276067134325, -1.7668496363844037, 21.525128935883917, 17.436904083312804, 78.83094057326703, 62.52161013317048 
136.81891910320454, -1.7492466296211193, 21.52513149479402, 19.78502882222476, 78.75970722689495, 62.52191813800832 
135.8852322210693, -1.7252507706827176, 21.52513494178442, 22.09219596064987, 78.6633157362814, 62.52233788149056 
134.9517471573151, -1.694869657005857, 21.5251392377665, 24.34760783954689, 78.54242258879496, 62.522869121043094 
134.0185106749171, -1.6581128989453993, 21.525144333334282, 26.541752413569302, 78.39782062141941, 62.52351154980617 
133.0855690819937, -1.6149921106083984, 21.525150168839318, 28.66654256197108, 78.23041582547097, 62.52426479691691 
132.15296814726682, -1.565520898817346, 21.525156674480993, 30.71538113216504, 78.04120292930497, 62.52512842784996 
131.22075301660146, -1.5097148502357414, 21.525163770412366, 32.6831580658761, 77.83124109672339, 62.5261019448168 
130.28896813078458, -1.4475915166947706, 21.52517136686124, 34.56619039959629, 77.60163085925235, 62.527184787222424 
129.3576571446977, -1.3791703987646649, 21.52517936426637, 36.3621183587623, 77.353493121931, 62.52837633217934 
128.4268628480312, -1.3044729276196487, 21.525187653428592, 38.06977133503328, 77.08795078940273, 62.52967589507784 
127.4966270876823, -1.2235224452499547, 21.525196115676703, 39.68901664902198, 76.80611328724191, 62.531082730212006 
126.56699069197107, -1.1363441830789647, 21.525204623047905, 41.220602157568294, 76.50906402543893, 62.532596031460734 
125.63799339679997, -1.0429652390478146, 21.525213038482452, 42.666001448038735, 76.19785067744482, 62.53421493302264 
124.70967377387646, -0.9434145532336576, 21.525221216032346, 44.027267963980385, 75.87347802993496, 62.53593851020402 
123.78206916110716, -0.8377228820716076, 21.52522900108389, 45.30690219814452, 75.53690308966057, 62.537765780259114 
122.85521559526458, -0.72592277125362, 21.525236230593478, 46.50773422485365, 75.18903210509552, 62.53969570328109 
121.92914774701772, -0.6080485273807288, 21.525242733336743, 47.63282238343642, 74.83071916171077, 62.54172718314308 
121.00389885840806, -0.4841361884476217, 21.525248330170346, 48.68536786114378, 74.46276603091594, 62.54385906848782 
120.07950068284323, -0.3542234932411341, 21.525252834306368, 49.66864421133156, 74.0859229858292, 62.54609015376481 
119.15598342767049, -0.21834984973608224, 21.525256051598703, 50.585940416511015, 73.70089033576153, 62.548419180313466 
118.23337569938292, -0.07655630257377362, 21.525257780841205, 51.4405158986939, 73.30832047112939, 62.550844837491105 
117.31170445150015, 0.07111450029027667, 21.525257814077204, 52.235565829485196, 72.90882024849193, 62.55336576384452 
116.39099493515755, 0.22461834168160932, 21.525255936919866, 52.974195147702964, 72.50295357982502, 62.55598054832278 
115.47127065242604, 0.3839094699568106, 21.525251928883122, 53.65939981214048, 72.09124412017161, 62.55868773153138 
114.55255331237701, 0.548940634319283, 21.525245563722596, 54.294053971119006, 71.67417797324003, 62.56148580702446 
113.63486278989629, 0.7196631206120049, 21.52523660978621, 54.88090189739642, 71.25220635553728, 62.56437322263469 
112.71821708724273, 0.8960267874985101, 21.525224830373855, 55.42255370265224, 70.82574817662862, 62.56734838183868 
111.80263229833824, 1.0779801029439278, 21.525209984105835, 55.921484001471356, 70.39519250660777, 62.57040964515627 
110.88812257576664, 1.2654701809087554, 21.525191825299395, 56.38003283572926, 69.96090091237468, 62.57355533158242 
109.97470010045292, 1.4584428181688773, 21.52517010435301, 56.80040829448579, 69.5232096523604, 62.576783720049185 
109.06237505398383, 1.65684253117694, 21.525144568137836, 57.184690371646134, 69.08243172536662, 62.58009305091706 
108.15115559352664, 1.8606125928814594, 21.52511496039585, 57.53483569454749, 68.63885877360853, 62.58348152749278 
107.24104782929325, 2.0696950694219773, 21.525081022144125, 57.85268283269578, 68.19276284319953, 62.58694731757272 
106.33205580449314, 2.284030856620434, 21.525042492084687, 58.139957958789616, 67.74439800748253, 62.59048855500984 
105.42418147771058, 2.5035597161912047, 21.52499910701952, 58.398280685681776, 67.2940018600214, 62.59410334130152 
104.51742470763814, 2.7282203115943107, 21.524950602270042, 58.62916994472737, 66.84179688490633, 62.59778974719809 
103.61178324009202, 2.957950243459134, 21.524896712100578, 58.834049804599914, 66.38799171244223, 62.60154581432833 
102.70725269723204, 3.192686084508255, 21.524837170145286, 59.014255156501356, 65.93278226839679, 62.60536955684172 
101.80382656890406, 3.432363413913825, 21.524771709837903, 59.17103721294834, 65.47635282487292, 62.609258963064164 
100.90149620602011, 3.6769168510219314, 21.52470006484383, 59.3055687840074, 65.0188769606057, 62.61321199716646 
100.00025081588875, 3.9262800883828786, 21.52462196949389, 59.41894930784151, 64.56051843812202, 62.61722660084301 
99.10007745940518, 4.180385924028685, 21.524537159219335, 59.51220962243597, 64.10143200477549, 62.62130069499875 
98.20096105001055, 4.439166292941801, 21.52444537098739, 59.586316472990895, 63.64176412421325, 62.62543218144328 
97.30288435432622, 4.702552297662364, 21.524346343736813, 59.64217675518319, 63.18165364436254, 62.62961894458913 
96.40582799437108, 4.970474237984045, 21.524239818812948, 59.68064149871448, 62.72123240755937, 62.63385885315332 
95.50977045126636, 5.2428616396920145, 21.52412554040162, 59.702509598589586, 62.26062580798931, 62.638149761860035 
94.6146880703359, 5.5196432822991754, 21.52400325596136, 59.70853130367569, 61.799953301177645, 62.64248951314219 
93.72055506750736, 5.800747225740385, 21.523872716653376, 59.6994114734799, 61.33932886985793, 62.646875938840765 
92.82734353692351, 6.0861008359867546, 21.523733677768707, 59.6758126149208, 60.87886145016547, 62.65130686189959 
91.93502345967228, 6.375630809545761, 21.523585899151968, 59.63835771128667, 60.41865532174771, 62.65578009805401 
91.04356271354699, 6.669263196815404, 21.52342914562121, 59.58763285567663, 59.9588104650555, 62.66029345751174 
90.15292708375033, 6.966923424263582, 21.523263187383257, 59.524189701091395, 59.49942288877885, 62.664844746623906 
89.26308027445765, 7.268536315406901, 21.523087800444017, 59.44854773904096, 59.04058493011454, 62.66943176954496 
88.37398392115887, 7.574026110565495, 21.522902767013225, 59.36119641812113, 58.58238553030261, 62.67405232987944 
87.48559760370009, 7.883316485373565, 21.522707875903105, 59.26259711351349, 58.1249104876388, 62.67870423231416 
86.59787885995155, 8.196330568027378, 21.52250292292036, 59.153184957818155, 57.66824268996364, 62.683385284234134 
85.71078320002967, 8.512990955255626, 21.522287711251046, 59.033370543054936, 57.21246232843888, 62.688093297320414 
84.82426412100767, 8.83321972699877, 21.5220620518378, 58.90354150308638, 56.75764709425272, 62.69282608912911 
83.93827312205102, 9.156938459786987, 21.521825763748897, 58.76406398513485, 56.30387235973968, 62.69758148464871 
83.05275971992039, 9.484068238808062, 21.52157867453868, 58.615284018498265, 55.85121134526194, 62.70235731783568 
82.16767146478841, 9.814529668658986, 21.521320620598896, 58.457528788018514, 55.39973527307251, 62.70715143312587 
81.28295395632152, 10.14824288277722, 21.521051447500387, 58.2911078193298, 54.949513509266275, 62.711961686920844 
80.398550859984, 10.485127551549091, 21.520771010324808, 58.11631408241268, 54.500613694822576, 62.716785949047456 
79.51440392352542, 10.825102889095414, 21.520479173985866, 57.93342501950535, 54.05310186664896, 62.72162210418983 
78.63045299361973, 11.168087658735468, 21.520175813539563, 57.74270350297827, 53.60704256945272, 62.72646805329169 
77.74663603262807, 11.514000177132985, 21.519860814483273, 57.5443987283594, 53.162498959189975, 62.73132171492872 
76.86288913546512, 11.86275831712879, 21.51953407304291, 57.33874704730818, 52.719532898773934, 62.73618102664915 
75.9791465465529, 12.214279509267051, 21.519195496448123, 57.12597274497205, 52.2782050466619, 62.74104394628143 
75.09534067685371, 12.56848074202299, 21.518845003194922, 56.906288765821785, 51.83857493888433, 62.745908453208244 
74.2114021209794, 12.925278560741933, 21.518482523295518, 56.67989739174903, 51.40070106502865, 62.750772549605614 
73.32725967438023, 13.284589065300905, 21.518107998514875, 56.4469908759187, 50.96464093864454, 62.755634261645945 
72.44284035062462, 13.646327906505144, 21.517721382593894, 56.20775203560127, 50.530451162496234, 62.76049164066429 
71.55806939878602, 14.010410281233874, 21.51732264145858, 55.96235480696151, 50.09818748904884, 62.76534276428685 
70.6728703209621, 14.37675092635038, 21.516911753415297, 55.71096476455205, 49.66790487654297, 62.77018573752063 
69.78716488995666, 14.745264111393542, 21.516488709331398, 55.45373960804858, 49.23965754097961, 62.775018693803915 
68.9008731671636, 15.115863630068592, 21.516053512801435, 55.190829618569104, 48.813499004310046, 62.7798397960162 
