# MEX_intpoint_lon [deg], MEX_intpoint_lat [deg], MEX_intpoint_angle [deg], TGO_intpoint_lon [deg], TGO_intpoint_lat [deg], TGO_intpoint_angle [deg] 
-138.671599232003, 19.43545743550343, 21.338691455989412, -27.749064825761376, 46.11218145400662, 62.791343278970594 
-139.57640327534546, 19.056667237830467, 21.339241783755618, -28.106417677438277, 46.50082847225833, 62.78690699329162 
-140.47959122304584, 18.678883129677658, 21.339781567508556, -28.46006251576338, 46.89220066489049, 62.78244384689276 
-141.38125735117188, 18.302196736261493, 21.34031065552316, -28.809924854058288, 47.286255445524624, 62.77795523593542 
-142.28149458132802, 17.926699038709195, 21.340828908846937, -29.155926978858663, 47.68295001536228, 62.77344259003895 
-143.18039445205346, 17.552480392306606, 21.34133620131541, -29.49798774467559, 48.08224135223806, 62.76890737179307 
-144.07804709156002, 17.179630543968, 21.34183241955221, -29.83602235586763, 48.484086198424066, 62.76435107622976 
-144.9745411916789, 16.80823864888905, 21.34231746295371, -30.169942134637505, 48.88844104710881, 62.759775230254895 
-145.86996398289523, 16.438393286345576, 21.34279124365836, -30.49965427408185, 49.29526212746721, 62.75518139204023 
-146.76440121035688, 16.070182474603754, 21.34325368650078, -30.825061575126718, 49.70450538822997, 62.750571150375364 
-147.65793711075435, 15.703693684908622, 21.34370472895071, -31.146062166078472, 50.116126479652266, 62.74594612398056 
-148.5506543899747, 15.339013854520394, 21.34414432103683, -31.462549203404926, 50.5300807337717, 62.74130796078063 
-149.4426342014421, 14.97622939876932, 21.344572425255894, -31.77441055223645, 50.94632314283511, 62.7366583371401 
-150.33395612506567, 14.615426222101904, 21.344989016466837, -32.08152844493911, 51.36480833576215, 62.731998957060625 
-151.22469814672172, 14.25668972809292, 21.345394081770568, -32.38377911595946, 51.785490552499894, 62.72733155134045 
-152.11493663820693, 13.900104828399087, 21.34578762037516, -32.68103241097422, 52.20832361610929, 62.722657876697255 
-153.00474633760464, 13.545755950632127, 21.346169643446984, -32.973151368193165, 52.633260902406974, 62.71797971485426 
-153.89420033001556, 13.193727045130082, 21.34654017394783, -33.25999176946107, 53.06025530696952, 62.713298871590865 
-154.78337002860934, 12.844101590607753, 21.34689924645827, -33.54140165857918, 53.489259209286054, 62.70861717575796 
-155.6723251559626, 12.49696259866796, 21.34724690698759, -33.8172208240201, 53.92022443382447, 62.70393647825912 
-156.5611337256533, 12.152392617157462, 21.347583212770484, -34.0872802429349, 54.35310220775063, 62.69925865099794 
-157.44986202409078, 11.810473732352309, 21.347908232050855, -34.35140148304889, 54.787843115013864, 62.694585585792964 
-158.3385745925646, 11.471287569959275, 21.348222043852946, -34.609396058706686, 55.22439704648071, 62.68991919326024 
-159.22733420950357, 11.134915294921102, 21.34852473774025, -34.86106473695556, 55.66271314576518, 62.68526140166543 
-160.11620187294125, 10.801437610015354, 21.348816413562343, -35.10619678914406, 56.10273975036589, 62.68061415574533 
-161.0052367831917, 10.470934753237627, 21.349097181190213, -35.3445691830557, 56.544424327677376, 62.67597941550064 
-161.89449632574318, 10.143486493961916, 21.34936716024019, -35.57594571009099, 56.98771340539585, 62.67135915496044 
-162.7840360543848, 9.819172127872383, 21.349626479787112, -35.800076041446914, 57.43255249578538, 62.666755360919794 
-163.6739096745864, 9.498070470662391, 21.349875278066925, -36.016694706618296, 57.87888601321146, 62.66217003165138 
-164.56416902715594, 9.180259850498697, 21.35011370216914, -36.22551998684953, 58.32665718428005, 62.657605175592295 
-165.45486407220665, 8.865818099250058, 21.350341907719674, -36.42625271539274, 58.77580794984573, 62.6530628100074 
-166.3460428734678, 8.554822542481816, 21.350560058554404, -36.618574975568194, 59.22627885806565, 62.64854495962994 
-167.23775158298133, 8.247349988219655, 21.350768326383825, -36.802148686667316, 59.67800894758075, 62.64405365528142 
-168.1300344262279, 7.943476714487911, 21.350966890449413, -36.97661406667471, 60.130935619795615, 62.63959093247122 
-169.02293368773317, 7.643278455629752, 21.351155937171985, -37.141587959603484, 60.584994499106166, 62.63515882997792 
-169.91648969720782, 7.346830387418784, 21.351335659792618, -37.29666201392232, 61.04011927978463, 62.630759388413075 
-170.81074081627918, 7.0542071109737785, 21.3515062580066, -37.441400697092256, 61.49624155807376, 62.62639464876958 
-171.70572342587622, 6.765482635490681, 21.351667937590857, -37.57533912960636, 61.953290647863184, 62.622066650955084 
-172.6014719143333, 6.480730359808253, 21.351820910025275, -37.697980720126026, 62.41119337811815, 62.61777743231272 
-173.49801866628155, 6.200023052826006, 21.351965392108742, -37.80879458130965, 62.86987387000069, 62.613529026130095 
-174.39539405239853, 5.92343283279613, 21.352101605569878, -37.90721270372223, 63.32925329136039, 62.609323460138285 
-175.29362642009215, 5.651031145512943, 21.352229776673543, -37.99262686277574, 63.789249585975305, 62.6051627550022 
-176.19274208519386, 5.38288874142664, 21.35235013582313, -38.06438523096571, 64.24977717458253, 62.60104892280392 
-177.09276532474118, 5.119075651710431, 21.35246291715962, -38.12178866472503, 64.71074662435336, 62.596983965520494 
-177.99371837092994, 4.859661163312983, 21.352568358157505, -38.164086631999346, 65.17206428302526, 62.592969873497864 
-178.895621406318, 4.604713793030855, 21.352666699218467, -38.19047274315626, 65.63363187340278, 62.58900862392241 
-179.79849256036402, 4.354301260638426, 21.352758183263088, -38.20007984407495, 66.09534604336457, 62.58510217929172 
179.2976520926156, 4.108490461115574, 21.352843055321312, -38.191974626243656, 66.5570978658625, 62.58125248588642 
178.3927985339867, 3.8673474360161677, 21.35292156212203, -38.16515170445465, 67.01877228265319, 62.57746147224412 
177.48693479975128, 3.630937344023437, 21.3529939516825, -38.11852710829447, 67.48024748465454, 62.57373104763796 
176.58005097783135, 3.3993244307408466, 21.353060472897972, -38.05093112918569, 67.94139422085578, 62.57006310056064 
175.6721392036009, 3.172571997770141, 21.353121375132204, -37.96110046039874, 68.40207502661221, 62.56645949721588 
174.76319365358478, 2.9507423711308194, 21.35317690780929, -37.847669563450296, 68.86214336091396, 62.562922080019234 
173.85321053724604, 2.7338968690781873, 21.35322732000743, -37.70916119096553, 69.32144264081347, 62.55945266610929 
172.94218808678443, 2.5220957693795456, 21.353272860055107, -37.54397599386969, 69.77980515961448, 62.55605304587151 
172.03012654487313, 2.3153982761109826, 21.353313775130196, -37.35038114033683, 70.23705087365478, 62.55272498147618 
171.11702815026297, 2.1138624860394883, 21.353350310862652, -37.12649787614865, 70.69298604054342, 62.54947020543179 
170.20289712118733, 1.9175453546574948, 21.35338271094112, -36.87028796221866, 71.14740168954202, 62.54629041915593 
169.28773963650553, 1.726502661939429, 21.3534112167241, -36.57953893666062, 71.60007190241298, 62.5431872915652 
168.37156381452715, 1.5407889778918256, 21.35343606685617, -36.25184816813328, 72.0507518805241, 62.540162457685554 
167.45437968946462, 1.3604576279704614, 21.353457496889774, -35.88460569722181, 72.49917577134863, 62.53721751728505 
166.5361991854668, 1.1855606584400784, 21.35347573891297, -35.47497590721749, 72.94505422482136, 62.534354033530114 
165.61703608819363, 1.0161488017535345, 21.353491021183785, -35.01987812995083, 73.38807164745005, 62.531573531667235 
164.69690601389593, 0.8522714420289369, 21.35350356777159, -34.51596638296409, 73.82788311985935, 62.52887749773185 
163.77582637597422, 0.6939765807043855, 21.353513598205865, -33.959608559825654, 74.26411094189422, 62.52626737728513 
162.85381634899494, 0.5413108024510653, 21.35352132713306, -33.3468655666063, 74.69634076901616, 62.52374457418097 
161.9308968301518, 0.3943192414260087, 21.353526963981714, -32.67347112790526, 75.1241173051817, 62.521310449364435 
161.0070903981667, 0.2530455479465331, 21.353530712636505, -31.934813291642467, 75.54693952166556, 62.51896631970279 
160.0824212696337, 0.11753185566859073, 21.353532771121586, -31.1259190622228, 75.96425537971669, 62.516713456850866 
159.15691525281687, -0.012181250648919385, 21.353533331293498, -30.24144410787472, 76.3754560493112, 62.514553086152006 
158.23059969892213, -0.13605476671192507, 21.353532578544343, -29.27567014165891, 76.77986963896291, 62.51248638557588 
157.30350345087194, -0.25405129950983024, 21.35353069151529, -28.22251338552714, 77.17675448561576, 62.510514484694575 
156.37565678961954, -0.3661350973046839, 21.35352784182105, -27.07554850241143, 77.56529210284378, 62.50863846369814 
155.44709137804952, -0.4722720787116127, 21.353524193785578, -25.82805351275596, 77.9445799543822, 62.50685935245056 
154.51784020251998, -0.5724298607929106, 21.35351990418926, -24.47308245405247, 78.31362431329607, 62.50517812958802 
153.58793751210936, -0.6665777860898491, 21.353515122028135, -23.003573791592828, 78.67133358959157, 62.50359572165956 
152.65741875564206, -0.754686948518408, 21.353509988285285, -21.4125036541514, 79.01651266419807, 62.502113002312214 
151.72632051657317, -0.8367302180575523, 21.353504635714774, -19.6930935337688, 79.34785895512404, 62.50073079152067 
150.79468044582268, -0.912682264161327, 21.353499188638402, -17.839081680204615, 79.66396115604526, 62.49944985486337 
149.86253719265707, -0.9825195778290208, 21.353493762755562, -15.84506538995454, 79.96330181201293, 62.4982709028451 
148.92993033372466, -1.0462204922709901, 21.35348846496645, -13.706916945979186, 80.24426509937513, 62.49719459026753 
147.99690030035777, -1.1037652021111928, 21.35348339320881, -11.422268293416943, 80.50515130540678, 62.496221515648124 
147.06348830426296, -1.1551357810712377, 21.353478636308505, -8.99104805799679, 80.74419948369527, 62.49535222068827 
146.12973626172706, -1.200316198084976, 21.353474273844114, -6.416039301995754, 80.95961950309042, 62.49458718979143 
145.1956867164722, -1.2392923317966564, 21.35347037602561, -3.7034087447585042, 81.14963411911117, 62.493926849631606 
144.26138276130018, -1.2720519834004151, 21.353467003587426, -0.863141039606555, 81.31253071546946, 62.493371568773085 
143.32686795867102, -1.2985848877833435, 21.353464207696014, 2.090700066793991, 81.4467210030283, 62.49292165734155 
142.3921862603646, -1.3188827229393973, 21.353462029871977, 5.139962246496322, 81.55080535845904, 62.49257736674703 
141.4573819263798, -1.3329391176261758, 21.353460501926865, 8.262708901543885, 81.62363691495032, 62.49233888945948 
140.52249944322708, -1.3407496572420274, 21.353459645914818, 11.433864015450913, 81.66437937999947, 62.49220635883672 
139.58758344177446, -1.342311887905949, 21.353459474098994, 14.626173593797795, 81.67255226713378, 62.49217984900495 
138.65267861480876, -1.3376253187281126, 21.353459988932983, 17.811404005099217, 81.64805807133676, 62.49225937479283 
137.71782963447367, -1.3266914222643293, 21.353461183057014, 20.961651345584205, 81.59118789036778, 62.49244489171788 
136.78308106974936, -1.3095136331530366, 21.353463039309144, 24.050613129996627, 81.50260474928604, 62.49273629602652 
135.8484773041356, -1.2860973449389081, 21.35346553075143, 27.05468143475191, 81.38330681231517, 62.49313342478672 
134.91406245370098, -1.2564499050924909, 21.353468620710814, 29.953752563272356, 81.23457509346261, 62.493636056033594 
133.97988028565902, -1.2205806082407666, 21.353472262834963, 32.731701184141066, 81.05791170686128, 62.49424390896794 
133.04597413762923, -1.1785006876286177, 21.353476401162773, 35.37652175380949, 80.85497495478273, 62.49495664420696 
132.1123868377381, -1.1302233048365835, 21.353480970209574, 37.88018395811528, 80.62751679092376, 62.49577386408718 
131.17916062571211, -1.0757635377851462, 21.35348589506682, 40.238274859472156, 80.37732678893327, 62.496695113019044 
130.24633707511, -1.015138367060898, 21.353491091516265, 42.44950791809078, 80.10618511488425, 62.49771987789305 
129.3139570168357, -0.9483666606046133, 21.353496466158273, 44.51517221298958, 79.81582549390679, 62.49884758853646 
128.3820604640705, -0.8754691568057769, 21.353501916554343, 46.43858003177617, 79.50790798215709, 62.500077618220025 
127.45068653875335, -0.7964684460526542, 21.353507331383412, 48.224553103506956, 79.18400057440378, 62.50140928421498 
126.51987339973535, -0.7113889507910063, 21.353512590611945, 49.87897105203764, 78.8455682644456, 62.502841848397914 
125.58965817272411, -0.6202569041484554, 21.353517565677425, 51.40839223116839, 78.4939680487036, 62.50437451790465 
124.6600768821292, -0.523100327185361, 21.353522119685056, 52.819747571601404, 78.13044842832782, 62.506006445830955 
123.73116438490972, -0.4199490048362334, 21.35352610761749, 54.12010210748718, 77.75615213843788, 62.507736731979705 
122.80295430651867, -0.3108344606089518, 21.35352937655715, 55.316475717630006, 77.37212105169193, 62.509564423653586 
121.87547897902968, -0.195789930111915, 21.353531765921037, 56.41571348825829, 76.97930242573824, 62.511488516492484 
120.94876938152291, -0.0748503334817463, 21.353533107707467, 57.424396252821666, 76.57855586658266, 62.513507955353916 
120.02285508279901, 0.05194775321360949, 21.353533226754763, 58.348782728434855, 76.17066055169839, 62.5156216352363 
119.09776418648005, 0.18456612751948162, 21.353531941011155, 59.194775857017696, 75.75632239523628, 62.517828402243204 
118.173523278549, 0.3229649910083284, 21.353529061815852, 59.96790722271501, 75.33618094504138, 62.52012705458768 
117.25015737736854, 0.46710298048311727, 21.353524394190757, 60.673334612615385, 74.91081588160047, 62.52251634363555 
116.32768988621321, 0.6169371998892138, 21.353517737142464, 61.3158488442954, 74.48075304745247, 62.52499497498614 
115.40614254833817, 0.7724232528533193, 21.35350888397417, 61.89988687618153, 74.04646997670814, 62.5275616095893 
114.48553540460085, 0.9335152757673698, 21.35349762260709, 62.42954894656252, 73.6084009222809, 62.53021486489733 
113.56588675364218, 1.1001659713351828, 21.353483735910867, 62.90861806939918, 73.16694139662957, 62.532953316050474 
112.64721311462651, 1.2723266424997428, 21.353467002042656, 63.340580670631425, 72.72245225295708, 62.5357754970944 
111.72952919253129, 1.4499472266694429, 21.353447194794406, 63.72864749924514, 72.2752633399652, 62.53867990222854 
110.8128478459692, 1.6329763301621618, 21.353424083947765, 64.07577421324008, 71.82567676598795, 62.541664987083195 
109.8971800575196, 1.8213612627869948, 21.35339743563638, 64.38468123957524, 71.3739698087563, 62.54472917002473 
108.98253490653701, 2.015048072484575, 21.35336701271482, 64.65787265402652, 70.92039750600156, 62.547870833486776 
108.0689195444, 2.2139815799481246, 21.35333257513388, 64.89765393376344, 70.46519496017005, 62.55108832532561 
107.15633917215561, 2.418105413149188, 21.353293880321722, 65.10614851197411, 70.00857938809492, 62.55437996019911 
106.24479702051029, 2.627362041693354, 21.35325068357012, 65.28531311758606, 69.55075194382964, 62.557744020966766 
105.33429433211143, 2.841692810933539, 21.353202738425754, 65.43695191989029, 69.09189934016892, 62.56117876010942 
104.42483034606019, 3.0610379757701747, 21.353149797085518, 65.56272952214354, 68.63219529178191, 62.564682401167424 
103.51640228459027, 3.285336734070037, 21.353091610795794, 65.66418286339483, 68.17180180042884, 62.568253140195 
102.60900534184475, 3.5145272596377115, 21.353027930254765, 65.74273209640793, 67.71087030046075, 62.571889147229776 
101.70263267467838, 3.7485467346760326, 21.352958506017607, 65.79969051353969, 67.24954268073051, 62.57558856777528 
100.79727539541035, 3.9873313816747054, 21.352883088903695, 65.83627359319814, 66.78795219717323, 62.579349524295274 
99.8929225664498, 4.230816494668459, 21.352801430405524, 65.85360723808559, 66.32622428863932, 62.58317011771786 
98.98956119671382, 4.478936469809208, 21.35271328309869, 65.85273527358777, 65.86447730707201, 62.5870484289477 
98.08717623975687, 4.731624835199212, 21.352618401052467, 65.83462627095162, 65.4028231717999, 62.59098252038521 
97.18575059352797, 4.98881427993508, 21.352516540240316, 65.80017975568944, 64.94136795654693, 62.59497043745032 
96.28526510167296, 5.2504366823152, 21.35240745894999, 65.75023185723452, 64.48021241673443, 62.599010210109974 
95.3856985562969, 5.516423137166217, 21.35229091819247, 65.68556045144062, 64.0194524637443, 62.60309985440679 
94.48702770210345, 5.786703982246649, 21.352166682109353, 65.60688984319287, 63.55917959201863, 62.6072373739884 
93.58922724182712, 6.061208823688999, 21.352034518378137, 65.51489503226288, 63.099481264172944, 62.61142076163463 
92.69226984287614, 6.339866560444105, 21.351894198614758, 65.41020560164546, 62.64044125868957, 62.615648000782066 
91.79612614510455, 6.6226054076945005, 21.351745498773013, 65.29340926398393, 62.182139984220356, 62.619917067043524 
90.9007647696333, 6.909352919206355, 21.35158819954023, 65.16505509833702, 61.72465476405785, 62.624225929721426 
90.00615232864307, 7.200036008591855, 21.351422086728668, 65.02565650646089, 61.268060093921925, 62.62857255331339 
89.11225343606267, 7.494580969457178, 21.351246951662233, 64.87569391496662, 60.81242787584564, 62.63295489900836 
88.21903071908054, 7.792913494413127, 21.351062591557874, 64.71561724715447, 60.3578276306274, 62.63737092617192 
87.32644483040843, 8.094958692928605, 21.350868809901225, 64.54584818600503, 59.90432669103574, 62.64181859381943 
86.43445446123131, 8.40064110800905, 21.35066541681601, 64.36678224770701, 59.451990377708675, 62.64629586207521 
85.54301635477876, 8.709884731684994, 21.350452229426647, 64.17879068320494, 59.000882159472496, 62.65080069361692 
84.65208532045914, 9.022613019297356, 21.350229072213693, 63.98222222354025, 58.55106379961472, 62.65533105510286 
83.76161424849965, 9.33874890256935, 21.349995777361514, 63.77740468321775, 58.10259548947807, 62.659884918581845 
82.87155412504099, 9.65821480145625, 21.349752185097827, 63.56464643444432, 57.65553597059413, 62.66446026288353 
81.98185404763905, 9.98093263476668, 21.349498144024697, 63.344237763838336, 57.20994264644437, 62.669055074988485 
81.09246124113068, 10.306823829551396, 21.349233511440325, 63.11645212208756, 56.765871684820475, 62.673667351376146 
80.20332107382566, 10.635809329256839, 21.348958153651527, 62.881547276024605, 56.3233781116536, 62.67829509935002 
79.31437707399138, 10.967809600643461, 21.348671946276177, 62.63976637168255, 55.882515897090656, 62.68293633833853 
78.42557094660262, 11.302744639469829, 21.348374774535426, 62.39133891607824, 55.44333803451653, 62.68758910117071 
77.53684259033332, 11.640533974946015, 21.34806653353519, 62.13648168473782, 55.00589661314752, 62.692251435325076 
76.64813011477354, 11.981096672960907, 21.347747128536557, 61.87539956131908, 54.57024288475978, 62.69692140415132 
75.75936985785941, 12.32435133809025, 21.347416475214768, 61.608286315092315, 54.1364273250581, 62.7015970880631 
74.87049640351087, 12.670216114393325, 21.34707449990637, 61.33532532150655, 53.704499690140956, 62.70627658570156 
73.981442599477, 13.018608685008187, 21.346721139844234, 61.056690230586725, 53.274509068472284, 62.71095801506793 
73.09213957539497, 13.369446270556733, 21.346356343380148, 60.77254558747347, 52.84650392873009, 62.71563951462502 
72.20251676107554, 13.722645626372213, 21.34598007019458, 60.483047409026064, 52.42053216386633, 62.72031924436607 
71.31250190503364, 14.07812303856372, 21.345592291493443, 60.188343720055606, 51.996641131680136, 62.72499538685077 
70.4220210932896, 14.435794318933164, 21.345192990191414, 59.888575052437005, 51.57487769217746, 62.72966614820686 
69.530998768473, 14.795574798762086, 21.344782161081795, 59.58387491006001, 51.15528824196463, 62.734329759097434 
68.63935774926863, 15.157379321486914, 21.344359810992355, 59.274370202318984, 50.73791874589999, 62.73898447565253 
