# MEX_intpoint_lon [deg], MEX_intpoint_lat [deg], MEX_intpoint_angle [deg], TGO_intpoint_lon [deg], TGO_intpoint_lat [deg], TGO_intpoint_angle [deg] 
-103.72670793431654, 20.369517422362662, 22.176435544557332, -141.97841304937714, 58.846845521095716, 62.53231038708178 
-104.63943224584318, 20.009528046126285, 22.17700343617202, -142.76114397027266, 58.61781352685394, 62.53459747265644 
-105.55047525090109, 19.650496100081483, 22.177561496488202, -143.54045006261416, 58.39035637656736, 62.53687845253911 
-106.45992485092954, 19.292510193070825, 22.178109567259494, -144.31644487333784, 58.16450915192342, 62.53915263640372 
-107.36786772976805, 18.935658283228356, 22.178647502140056, -145.08923821072392, 57.9403063295028, 62.54141934094858 
-108.2743893230229, 18.580027692721902, 22.17917516670413, -145.85893627885577, 57.71778179888135, 62.54367789008824 
-109.17957378893351, 18.225705121864166, 22.1796924384512, -146.6256418067561, 57.496968879687465, 62.54592761513676 
-110.08350398061864, 17.87277666255463, 22.18019920679684, -147.38945417240254, 57.27790033766727, 62.54816785498319 
-110.98626141959204, 17.521327811015887, 22.180695373049257, -148.15046952182132, 57.06060839980635, 62.55039795625862 
-111.88792627044263, 17.171443479790838, 22.18118085037162, -148.9087808834523, 56.845124768555415, 62.55261727349505 
-112.78857731658373, 16.823208008968727, 22.181655563730306, -149.6644782779747, 56.631480635203886, 62.55482516927591 
-113.68829193698109, 16.47670517661052, 22.18211944982907, -150.41764882377666, 56.41970669244357, 62.55702101437858 
-114.58714608377822, 16.132018208345634, 22.182572457029387, -151.16837683824713, 56.20983314616253, 62.559204187908556 
-115.48521426074386, 15.789229786114026, 22.183014545257016, -151.91674393506304, 56.00188972650674, 62.56137407742552 
-116.38256950247258, 15.448422056029603, 22.183445685894938, -152.66282911763838, 55.79590569824592, 62.56353007906116 
-117.27928335427777, 15.109676635342227, 22.18386586166294, -153.4067088688974, 55.59190987047728, 62.56567159762923 
-118.17542585272125, 14.773074618477727, 22.184275066483945, -154.1484572375276, 55.38993060570006, 62.56779804672729 
-119.07106550673107, 14.438696582136503, 22.18467330533723, -154.88814592086322, 55.189995828291245, 62.56990884883052 
-119.9662692792649, 14.106622589433302, 22.185060594099017, -155.62584434454394, 54.99213303241219, 62.57200343537797 
-120.86110256948278, 13.776932193062006, 22.18543695937028, -156.36161973908904, 54.79636928937365, 62.57408124685067 
-121.75562919539863, 13.449704437471011, 22.185802438292395, -157.09553721352043, 54.60273125448604, 62.576141732842274 
-122.64991137698624, 13.125017860036206, 22.186157078350664, -157.82765982616488, 54.411245173419836, 62.578184352122044 
-123.54400971972014, 12.802950491220246, 22.18650093716608, -158.55804865275826, 54.22193688810043, 62.58020857269024 
-124.43798319853863, 12.483579853708074, 22.18683408227557, -159.28676285197224, 54.03483184216002, 62.5822138718265 
-125.33188914222032, 12.166982960510524, 22.187156590901143, -160.01385972847717, 53.84995508596861, 62.58419973613054 
-126.22578321817112, 11.853236312029244, 22.187468549708115, -160.73939479365072, 53.66733128126469, 62.58616566155614 
-127.11971941762464, 11.542415892077576, 22.187770054552836, -161.4634218240388, 53.48698470540554, 62.588111153437765 
-128.01375004126174, 11.234597162854097, 22.18806121022028, -162.18599291766793, 53.308939255256114, 62.590035726510926 
-128.90792568526203, 10.92985505886661, 22.18834213015177, -162.9071585483076, 53.13321845073441, 62.59193890492517 
-129.80229522780274, 10.62826397980655, 22.18861293616334, -163.62696761777428, 52.95984543803093, 62.59382022225121 
-130.69690581602617, 10.329897782375008, 22.188873758154894, -164.3454675063664, 52.7888429925184, 62.595679221481376 
-131.59180285350016, 10.034829771063768, 22.189124733810896, -165.0627041215151, 52.620233521367844, 62.5975154550239 
-132.48702998820053, 9.743132687896031, 22.189366008292662, -165.77872194473284, 52.454039065886, 62.59932848469134 
-133.3826291010485, 9.454878701133893, 22.18959773392283, -166.4935640769371, 52.290281303588735, 62.60111788168313 
-134.2786402950386, 9.170139392960976, 22.189820069862463, -167.2072722822246, 52.12898155002423, 62.60288322656251 
-135.17510188499787, 8.88898574615083, 22.190033181781107, -167.91988703016722, 51.97016076035933, 62.60462410922795 
-136.07205038801874, 8.61148812973356, 22.190237241520332, -168.63144753669806, 51.813839530741944, 62.606340128879644 
-136.96952051461156, 8.337716283675286, 22.190432426751173, -169.34199180365323, 51.66003809945176, 62.60803089398055 
-137.86754516062578, 8.06773930258674, 22.190618920625887, -170.05155665703185, 51.50877634785122, 62.60969602221296 
-138.76615539999133, 7.801625618479715, 22.190796911424645, -170.76017778403485, 51.360073801147735, 62.61133514043029 
-139.6653804783332, 7.539442982592082, 22.190966592197363, -171.46788976893868, 51.2139496289788, 62.61294788460448 
-140.565247807516, 7.2812584463040935, 22.191128160401444, -172.17472612786042, 51.070422645829865, 62.61453389976941 
-141.46578296117443, 7.027138341171104, 22.19128181753569, -172.88071934246543, 50.92951131129555, 62.616092839959975 
-142.36700967129036, 6.777148258099835, 22.191427768770954, -173.58590089266838, 50.79123373019393, 62.61762436814787 
-143.26894982587538, 6.531353025697638, 22.191566222578047, -174.2903012883758, 50.65560765254324, 62.619128156173666 
-144.17162346782067, 6.289816687826353, 22.19169739035335, -174.9939501003157, 50.52265047341011, 62.62060388467535 
-145.0750487949755, 6.052602480394754, 22.191821486042638, -175.69687598999838, 50.39237923263845, 62.62205124301439 
-145.97924216151685, 5.8197728074256005, 22.191938725763617, -176.39910673885055, 50.26481061446698, 62.62346992919843 
-146.8842180806717, 5.591389216435683, 22.192049327427643, -177.10066927656288, 50.13996094704421, 62.62485964980183 
-147.78998922885378, 5.367512373169483, 22.19215351036123, -177.80158970868905, 50.01784620184815, 62.626220119883364 
-148.69656645127606, 5.148202035729079, 22.192251494927678, -178.5018933435338, 49.8984819930192, 62.62755106290243 
-149.6039587690981, 4.933517028145395, 22.192343502149473, -179.20160471836445, 49.781883576612955, 62.62885221063273 
-150.51217338816807, 4.723515213437647, 22.192429753331865, -179.9007476249798, 49.668065849780476, 62.63012330307476 
-151.42121570941467, 4.518253466210177, 22.1925104696882, 179.40065486533175, 49.55704334988303, 62.631364088366674 
-152.33108934094514, 4.317787644837756, 22.192585871967363, 178.70258037741334, 49.448830253547754, 62.63257432269395 
-153.24179611190067, 4.122172563292325, 22.192656180084064, 178.00500720841205, 49.34344037567097, 62.63375377019816 
-154.15333608811892, 3.931461962666101, 22.19272161275212, 177.30791430447283, 49.240887168375444, 62.634902202885016 
-155.0657075896501, 3.7457084824475535, 22.192782387121596, 176.61128123792855, 49.14118371992745, 62.63601940053179 
-155.97890721016964, 3.5649636316085567, 22.192838718419956, 175.91508818495947, 49.04434275361986, 62.63710515059472 
-156.8929298383259, 3.3892777595624572, 22.19289081959791, 175.21931590369803, 48.95037662662676, 62.63815924811602 
-157.80776868105812, 3.218700027054157, 22.19293890098031, 174.5239457127554, 48.85929732883506, 62.639181495631284 
-158.723415288915, 3.0532783770446814, 22.192983169922634, 173.8289594701472, 48.771116481658545, 62.64017170307724 
-159.6398595833996, 2.8930595056536568, 22.193023830473468, 173.13433955259717, 48.68584533683947, 62.64112968770015 
-160.5570898863608, 2.7380888332241384, 22.193061083043435, 172.44006883519748, 48.60349477524259, 62.642055273964665 
-161.47509295144684, 2.5884104755750315, 22.193095124081005, 171.74613067140717, 48.52407530564646, 62.64294829346429 
-162.3938539976299, 2.44406721550689, 22.19312614575564, 171.05250887336885, 48.44759706353668, 62.64380858483263 
-163.3133567448066, 2.3051004746272197, 22.193154335648707, 170.35918769252606, 48.37406980990536, 62.644635993656046 
-164.2335834514712, 2.171550285561708, 22.19317987645248, 169.666151800524, 48.30350293006118, 62.64543037238826 
-165.15451495445325, 2.043455264617838, 22.193202945677765, 168.97338627037726, 48.23590543245424, 62.6461915802664 
-166.0761307107052, 1.9208525849669762, 22.19322371537038, 168.28087655788815, 48.17128594751936, 62.646919483229055 
-166.9984088411182, 1.8037779504106712, 22.19324235183701, 167.5886084833011, 48.10965272654193, 62.64761395383694 
-167.92132617633843, 1.6922655697963902, 22.193259015380733, 166.89656821317837, 48.0510136405496, 62.64827487119515 
-168.8448583045494, 1.5863481321467288, 22.193273860046496, 166.20474224248252, 47.995376179233524, 62.64890212087849 
-169.76897962117897, 1.4860567825654047, 22.193287033377125, 165.5131173768533, 47.94274744990229, 62.6494955948594 
-170.69366338048312, 1.391421098981702, 22.193298676179786, 164.82168071506507, 47.89313417647165, 62.65005519143822 
-171.61888174895194, 1.3024690697936574, 22.193308922303682, 164.1304196316529, 47.84654269849303, 62.650580815176994 
-172.54460586047713, 1.219227072468458, 22.19331789842883, 163.43932175969525, 47.80297897022374, 62.6510723768361 
-173.4708058732132, 1.1417198531564332, 22.193325723866607, 162.74837497374176, 47.76244855974125, 62.65152979331406 
-174.39745102805875, 1.0699705073730017, 22.193332510371988, 162.05756737287498, 47.72495664810424, 62.65195298759077 
-175.32450970867797, 1.0040004618001948, 22.193338361967925, 161.36688726389548, 47.69050802856269, 62.65234188867421 
-176.251949502977, 0.9438294572570498, 22.193343374782057, 160.67632314461963, 47.659107105819, 62.65269643155073 
-177.17973726594354, 0.8894755328850527, 22.193347636895947, 159.98586368728067, 47.63075789534243, 62.65301655713906 
-178.10783918375327, 0.8409550115919622, 22.193351228207057, 159.29549772202236, 47.60546402273832, 62.65330221224788 
-179.03622083904165, 0.798282486794021, 22.19335422030363, 158.6052142204767, 47.583228723174116, 62.65355334953767 
-179.96484727723512, 0.7614708104932448, 22.193356676352685, 157.91500227941572, 47.5640548408634, 62.65376992748602 
179.10631692616911, 0.7305310827228546, 22.193358651001265, 157.22485110446877, 47.54794482860954, 62.6539519103574 
178.17730759748832, 0.705472642390355, 22.193360190290967, 156.53474999389636, 47.53490074740982, 62.654099268176594 
177.2481608960224, 0.6863030595438496, 22.193361331586043, 155.84468832241174, 47.524924266121516, 62.654211976706655 
176.3189132446253, 0.673028129083276, 22.193362103515092, 155.15465552504185, 47.51801666119023, 62.654290017430725 
175.38960125980245, 0.6656518659343738, 22.193362525926293, 154.46464108101924, 47.51417881644161, 62.654333377538244 
174.46026168145931, 0.6641765016988694, 22.19336260985647, 153.7746344976965, 47.513411222936845, 62.6543420499154 
173.5309313024268, 0.6686024827903652, 22.193362357513838, 153.08462529447513, 47.515713978892194, 62.65431603313964 
172.60164689789138, 0.6789284700613004, 22.19336176227459, 152.39460298674052, 47.521086789662895, 62.65425533147876 
171.6724451548568, 0.6951513399219169, 22.193360808693207, 151.70455706979484, 47.52952896779147, 62.65415995489403 
170.74336260176537, 0.7172661869481065, 22.19335947252658, 151.01447700277976, 47.54103943312021, 62.65402991904769 
169.8144355384051, 0.7452663279708058, 22.19335772077184, 150.32435219258056, 47.55561671296771, 62.65386524531464 
168.88569996622869, 0.7791433076353499, 22.193355511717904, 149.63417197770383, 47.57325894236879, 62.653665960798456 
167.95719151920815, 0.8188869054151628, 22.193352795010625, 148.94392561211956, 47.593963864377486, 62.653432098351445 
167.02894539534654, 0.864485144060006, 22.19334951173146, 148.25360224906, 47.61772883043205, 62.65316369659904 
166.10099628896617, 0.9159242994551899, 22.193345594489596, 147.56319092476647, 47.64455080078117, 62.65286079996818 
165.17337832388927, 0.9731889118641107, 22.193340967527362, 146.87268054217478, 47.674426344970286, 62.652523458719706 
164.24612498762266, 1.0362617985228817, 22.19333554683879, 146.18205985453113, 47.70735164238677, 62.65215172898484 
163.31926906665595, 1.1051240675520853, 22.193329240301225, 145.49131744892935, 47.74332248286248, 62.65174567280557 
162.3928425829759, 1.1797551331473901, 22.193321947819744, 144.8004417297589, 47.78233426733216, 62.65130535817873 
161.46687673189672, 1.260132732007187, 22.193313561484178, 144.10942090205594, 47.824382008545875, 62.6508308591039 
160.54140182130033, 1.3462329409526403, 22.193303965738664, 143.41824295474592, 47.86946033183369, 62.65032225563502 
159.61644721237428, 1.4380301956922386, 22.19329303756327, 142.7268956437682, 47.91756347592038, 62.649779633935346 
158.6920412619311, 1.5354973106804806, 22.19328064666774, 142.03536647507246, 47.96868529378804, 62.64920308633595 
157.76821126638512, 1.6386055000175805, 22.193266655696753, 141.3436426874751, 48.02281925358419, 62.64859271139749 
156.8449834074577, 1.747324399334878, 22.19325092044684, 140.6517112353651, 48.07995843957272, 62.647948613975075 
155.92238269967496, 1.8616220886084227, 22.19323329009427, 139.9595587712475, 48.14009555312519, 62.647270905286305 
155.0004329397162, 1.981465115841438, 22.193213607433847, 139.2671716281119, 48.20322291374929, 62.64655970298191 
154.07915665766356, 2.106818521554471, 22.193191709128236, 138.5745358016139, 48.269332460151766, 62.64581513121962 
153.15857507019797, 2.2376458640209234, 22.193167425967534, 137.88163693205598, 48.338415751332256, 62.645037320739846 
152.23870803577924, 2.3739092451841204, 22.193140583138554, 137.18846028615417, 48.41046396770504, 62.64422640894467 
151.3195740118412, 2.515569337191284, 22.193111000503762, 136.49499073857635, 48.48546791224491, 62.643382539978326 
150.40119001402692, 2.6625854094789334, 22.193078492889246, 135.80121275323725, 48.56341801165353, 62.64250586481016 
149.48357157748163, 2.81491535634377, 22.19304287038144, 135.10711036433472, 48.64430431754257, 62.64159654131934 
148.56673272021547, 2.972515724932714, 22.19300393863225, 134.4126671571107, 48.72811650762938, 62.640654734381386 
147.65068590854082, 3.1353417435856175, 22.192961499172043, 133.7178662483207, 48.81484388694124, 62.63968061595603 
146.73544202458436, 3.3033473504644246, 22.192915349730274, 133.0226902663936, 48.90447538902361, 62.6386743651765 
145.8210103358657, 3.4764852224027605, 22.19286528456311, 132.32712133126327, 48.9969995771481, 62.63763616843995 
144.90739846693177, 3.6547068039103516, 22.192811094787796, 131.63114103385337, 49.092404645515195, 62.63656621949862 
143.99461237302793, 3.8379623362675113, 22.192752568723265, 130.93473041519434, 49.19067842044716, 62.635464719552104 
143.0826563157832, 4.026200886645686, 22.19268949223645, 130.2378699451526, 49.291808361565764, 62.634331877339605 
142.17153284088138, 4.219370377191117, 22.192621649094022, 129.54053950074885, 49.39578156294991, 62.63316790923271 
141.26124275768555, 4.417417614009767, 22.192548821318937, 128.84271834404336, 49.50258475426743, 62.63197303932835 
140.3517851207789, 4.620288315993175, 22.19247078955129, 128.1443850995637, 49.61220430187583, 62.63074749954138 
139.44315721338108, 4.827927143426016, 22.192387333413276, 127.44551773125025, 49.72462620988572, 62.62949152969676 
138.53535453259497, 5.040277726318239, 22.192298231877356, 126.74609351889264, 49.839836121181484, 62.62820537762138 
137.62837077643644, 5.257282692405732, 22.192203263637527, 126.04608903403, 49.957819318392424, 62.62688929923469 
136.7221978325962, 5.4788836947657575, 22.19210220748296, 125.34548011528663, 50.0785607248085, 62.62554355863853 
135.81682576887977, 5.705021438995118, 22.191994842673633, 124.64424184311196, 50.20204490523362, 62.62416842820546 
134.91224282526986, 5.93563570990076, 22.191880949317376, 123.94234851389463, 50.32825606677, 62.622764188665755 
134.00843540755403, 6.170665397655017, 22.191760308747934, 123.23977361341709, 50.45717805952625, 62.62133112919252 
133.10538808245767, 6.4100485233692215, 22.191632703903462, 122.53648978961651, 50.58879437724198, 62.61986954748459 
132.20308357422175, 6.65372226404215, 22.191497919704986, 121.83246882461597, 50.7230881578215, 62.6183797498476 
131.3015027625652, 6.901622976841319, 22.191355743434315, 121.12768160598885, 50.860042183768456, 62.61686205127242 
130.40062468196817, 7.153686222677967, 22.191205965110914, 120.42209809721629, 50.9996388825138, 62.61531677551059 
129.50042652221586, 7.409846789038232, 22.1910483778673, 119.71568730729733, 51.14186032662821, 62.613744255147324 
128.6008836301397, 7.67003871203571, 22.190882778322287, 119.00841725946862, 51.28668823391085, 62.612144831671074 
127.70196951249537, 7.934195297652506, 22.1907089669518, 118.30025495898833, 51.43410396734489, 62.61051885553954 
126.80365583991643, 8.202249142138236, 22.190526748456637, 117.59116635993804, 51.58408853491108, 62.60886668624258 
125.90591245188399, 8.474132151538859, 22.190335932126736, 116.88111633099268, 51.7366225892494, 62.607188692360594 
125.00870736265439, 8.749775560328928, 22.190136332201394, 116.17006862010805, 51.891686427158895, 62.60548525161946 
124.11200676808784, 9.02910994912365, 22.189927768225097, 115.45798581807122, 52.049259988925314, 62.60375675094082 
123.21577505332391, 9.312065261448732, 22.18971006539836, 114.74482932085886, 52.20932285746594, 62.60200358648795 
122.31997480125091, 9.598570819548614, 22.189483054923194, 114.03055929074365, 52.37185425728016, 62.60022616370699 
121.4245668017189, 9.88855533921534, 22.189246574342608, 113.31513461608866, 52.536833053194485, 62.598424897363174 
120.52951006144951, 10.18194694362274, 22.189000467873967, 112.59851286976445, 52.704237748889675, 62.596600211571925 
119.63476181459747, 10.478673176152292, 22.18874458673536, 111.88065026612301, 52.87404648519765, 62.59475253982472 
118.74027753392261, 10.778661012199342, 22.18847878946494, 111.1615016164578, 53.046237038154885, 62.59288232500939 
117.84601094253428, 11.08183686994995, 22.18820294223258, 110.44102028287706, 53.22078681679873, 62.59099001942451 
116.95191402617387, 11.388126620120671, 22.18791691914341, 109.7191581305143, 53.397672860692566, 62.58907608478825 
116.05793704600404, 11.697455594655633, 22.187620602532967, 108.99586547799568, 53.576871837164866, 62.58714099224094 
115.16402855187859, 12.009748594376514, 22.187313883253484, 108.27109104608142, 53.75836003824653, 62.58518522234132 
114.2701353960693, 12.32492989558349, 22.18699666095085, 107.54478190439407, 53.942113377290696, 62.5832092650565 
113.37620274743254, 12.642923255606268, 22.18666884433208, 106.81688341614284, 54.12810738525772, 62.58121361974524 
112.48217410600004, 12.963651917306592, 22.186330351422598, 106.08733918074935, 54.316317206648, 62.57919879513462 
111.5879913179862, 13.287038612534724, 22.18598110981342, 105.35609097427587, 54.50671759506377, 62.57716530928962 
110.69359459120587, 13.613005564544498, 22.18562105689739, 104.6230786875528, 54.69928290838092, 62.57511368957584 
109.79892251090415, 13.941474489372798, 22.18525014009461, 103.88824026189802, 54.893987103510206, 62.57304447261498 
108.90391205600305, 14.272366596190961, 22.18486831706646, 103.15151162231602, 55.09080373072654, 62.57095820423301 
108.00849861577586, 14.60560258663744, 22.184475555917935, 102.41282660805982, 55.289705927544475, 62.568855439400934 
107.11261600696594, 14.941102653141975, 22.18407183538815, 101.67211690043416, 55.49066641211576, 62.56673674216802 
106.21619649137095, 15.278786476253904, 22.183657145028626, 100.9293119477134, 55.69365747612509, 62.564602685587424 
105.31917079392075, 15.618573220987905, 22.183231485369127, 100.18433888704227, 55.89865097715757, 62.56245385163397 
104.42146812128172, 15.960381532202723, 22.182794868070758, 99.43712246318243, 56.10561833051119, 62.56029083111432 
