# MEX_intpoint_lon [deg], MEX_intpoint_lat [deg], MEX_intpoint_angle [deg], TGO_intpoint_lon [deg], TGO_intpoint_lat [deg], TGO_intpoint_angle [deg] 
-104.91914055991266, 20.642983637189, 22.892958085684107, 176.51491904403315, 58.65136165741141, 62.53891991257231 
-105.80988643333615, 20.245928446237077, 22.89361343821741, 175.7429484222128, 58.41682536750902, 62.541271138941646 
-106.69892227769915, 19.850038339333313, 22.89425646592993, 174.9742995963411, 58.18392642886526, 62.543615909780414 
-107.58635140959967, 19.45540588294994, 22.89488698770971, 174.20885955919522, 57.95269960243089, 62.54595351576048 
-108.47227545584964, 19.062122957185554, 22.895504837369153, 173.44651912382975, 57.723179063092964, 62.54828325499225 
-109.35679433550409, 18.670280779335634, 22.89610986366446, 172.6871727813563, 57.495398417399045, 62.55060443322093 
-110.24000624296816, 18.279969926421753, 22.896701930297095, 171.9307185646906, 57.269390720220805, 62.55291636401421 
-111.12200763203552, 17.891280356648505, 22.897280915897216, 171.17705791801436, 57.04518849041195, 62.555218368941006 
-112.00289320072486, 17.504301429758655, 22.897846713989278, 170.42609557170607, 56.822823725511974, 62.5575097777418 
-112.88275587679047, 17.11912192625939, 22.898399232939788, 169.67773942250477, 56.60232791554475, 62.55978992848992 
-113.76168680379476, 16.735830065494035, 22.898938395887395, 168.9319004186775, 56.38373205595815, 62.56205816774438 
-114.63977532763957, 16.354513522535427, 22.899464140655397, 168.18849244997014, 56.167066659748315, 62.564313850694035 
-115.51710898346383, 15.975259443878668, 22.89997641964688, 167.4474322421303, 55.95236176881026, 62.566556341292625 
-116.39377348282466, 15.598154461912264, 22.900475199722635, 166.70863925579724, 55.73964696455367, 62.56878501238585 
-117.26985270108706, 15.223284708148473, 22.900960462061974, 165.97203558956383, 55.52895137782121, 62.570999245829356 
-118.14542866495808, 14.850735825194436, 22.90143220200682, 165.2375458870216, 55.32030369814439, 62.57319843259846 
-119.02058154010768, 14.480592977447463, 22.901890428889168, 164.50509724760903, 55.11373218237035, 62.57538197288917 
-119.89538961882938, 14.112940860498687, 22.902335165842235, 163.77461914108937, 54.9092646626911, 62.577549276211066 
-120.76992930769934, 13.747863709230902, 22.902766449595582, 163.04604332549283, 54.706928554105225, 62.579699761471716 
-121.64427511520223, 13.385445304597084, 22.903184330254447, 162.31930376836377, 54.50675086134042, 62.581832857052966 
-122.51849963929877, 13.025768979067955, 22.903588871063672, 161.5943365711609, 54.308758185263876, 62.583948000878955 
-123.3926735549178, 12.668917620737432, 22.90398014815651, 160.87107989666552, 54.112976728806146, 62.586044640476345 
-124.26686560136203, 12.314973676076775, 22.904358250288688, 160.14947389925766, 53.91943230242293, 62.58812223302646 
-125.14114256962479, 11.964019151328802, 22.90472327855806, 159.429460657928, 53.7281503291178, 62.59018024540984 
-126.01556928962053, 11.616135612535372, 22.905075346110287, 158.71098411189743, 53.53915584904818, 62.59221815424303 
-126.89020861733944, 11.271404184192445, 22.905414577830893, 157.9939899987235, 53.35247352373522, 62.59423544590781 
-127.76512142194198, 10.929905546528358, 22.90574111002416, 157.27842579477647, 53.16812763989803, 62.59623161657348 
-128.64036657281622, 10.591719931402588, 22.906055090079253, 156.56424065797495, 52.986142112931034, 62.59820617221149 
-129.51600092662576, 10.256927116823698, 22.906356676124073, 155.8513853726742, 52.80654049004262, 62.60015862860326 
-130.3920793143829, 9.92560642008675, 22.906646036667265, 155.13981229660638, 52.62934595307292, 62.602088511341236 
-131.26865452858647, 9.59783668953212, 22.906923350228872, 154.42947530977534, 52.45458132100671, 62.60399535582312 
-132.14577731046947, 9.27369629492958, 22.907188804960168, 153.72032976521402, 52.28226905219791, 62.605878707239754 
-133.02349633740727, 8.953263116493007, 22.907442598253045, 153.012332441516, 52.112431246320384, 62.60773812055662 
-133.90185821054078, 8.636614532533425, 22.907684936339717, 152.3054414970569, 51.945089646060055, 62.60957316048926 
-134.78090744267564, 8.323827405759786, 22.907916033882945, 151.59961642582525, 51.780265638561964, 62.61138340147275 
-135.66068644652154, 8.014978068239099, 22.908136113557692, 150.89481801478573, 51.61798025664573, 62.61316842762571 
-136.54123552334073, 7.710142305029806, 22.908345405624427, 150.191008302702, 51.458254179802424, 62.61492783270855 
-137.4225928520789, 7.4093953365045095, 22.908544147494823, 149.4881505403483, 51.3011077349849, 62.61666122007656 
-138.30479447905506, 7.112811799380635, 22.908732583290476, 148.78620915204397, 51.14656089720379, 62.618368202628034 
-139.18787430829101, 6.820465726479829, 22.90891096339501, 148.0851496984459, 50.99463328994017, 62.62004840274754 
-140.07186409256389, 6.5324305252399695, 22.909079544000377, 147.38493884053915, 50.84534418538618, 62.62170145224455 
-140.95679342526861, 6.24877895500569, 22.909238586647835, 146.6855443047666, 50.69871250452414, 62.6233269922877 
-141.842689733179, 5.969583103126564, 22.909388357764243, 145.98693484924277, 50.55475681705405, 62.624924673335144 
-142.7295782701996, 5.694914359894611, 22.909529128194233, 145.2890802309987, 50.41349534117968, 62.62649415506075 
-143.61748211220103, 5.424843392355709, 22.90966117272898, 144.59195117420677, 50.27494594326259, 62.62803510627672 
-144.50642215303452, 5.159440117032389, 22.90978476963207, 143.8955193393378, 50.13912613735291, 62.629547204853054 
-145.39641710182076, 4.898773671598619, 22.90990020016317, 143.1997572932043, 50.00605308460638, 62.63103013763355 
-146.28748348161088, 4.642912385549925, 22.910007748100153, 142.5046384798451, 49.87574359259547, 62.632483600349026 
-147.1796356295161, 4.391923749915396, 22.910107699260085, 141.81013719221025, 49.748214114523364, 62.633907297527955 
-148.0728856984033, 4.145874386061202, 22.91020034102013, 141.11622854460555, 49.62348074834845, 62.63530094240456 
-148.96724366025282, 3.904830013638099, 22.910285961838493, 140.4228884458586, 49.50155923582726, 62.63666425682488 
-149.86271731127383, 3.668855417728748, 22.91036485077646, 139.73009357316946, 49.38246496148316, 62.63799697115074 
-150.75931227887148, 3.438014415253327, 22.910437297021918, 139.03782134661188, 49.26621295150818, 62.63929882416228 
-151.65703203055662, 3.212369820695223, 22.910503589415047, 138.3460499042505, 49.15281787260481, 62.64056956295895 
-152.5558778848885, 2.991983411211283, 22.910564015976856, 137.65475807784344, 49.042294030774656, 62.6418089428592 
-153.45584902453567, 2.776915891194036, 22.910618863441087, 136.9639253690991, 48.93465537006058, 62.64301672729965 
-154.3569425115377, 2.5672268563561356, 22.91066841679019, 136.27353192645845, 48.829915471248434, 62.644192687733074 
-155.2591533048469, 2.3629747574096895, 22.910712958795983, 135.58355852237537, 48.72808755053475, 62.64533660352638 
-156.16247428022274, 2.1642168634159655, 22.91075276956548, 134.8939865310679, 48.62918445816631, 62.64644826185809 
-157.06689625254856, 1.9710092248831856, 22.910788126092662, 134.20479790671604, 48.53321867705729, 62.647527457616086 
-157.97240800063292, 1.783406636692286, 22.910819301816638, 133.51597516208147, 48.44020232138954, 62.64857399329545 
-158.87899629455302, 1.6014626009328052, 22.910846566186876, 132.82750134752618, 48.3501471352015, 62.64958767889697 
-159.7866459255899, 1.4252292897326388, 22.910870184235993, 132.13936003040826, 48.26306449097083, 62.65056833182624 
-160.69533973879948, 1.254757508167293, 22.910890416160747, 131.45153527483362, 48.17896538819582, 62.651515776793985 
-161.6050586682537, 1.0900966573354993, 22.910907516911756, 130.76401162174398, 48.09786045198054, 62.65242984571705 
-162.51578177498115, 0.9312946976894044, 22.91092173579245, 130.07677406932152, 48.01975993162824, 62.65331037762146 
-163.4274862876253, 0.7783981127081997, 22.910933316067833, 129.38980805369212, 47.94467369924763, 62.65415721854645 
-164.34014764583173, 0.6314518730050107, 22.910942494583576, 128.7030994299096, 47.87261124837629, 62.65497022145087 
-165.25373954636618, 0.4904994009570085, 22.910949501395894, 128.01663445320452, 47.80358169262558, 62.655749246121175 
-166.16823399195525, 0.3555825359487195, 22.910954559412765, 127.3303997604811, 47.73759376435072, 62.65649415908182 
-167.08360134283384, 0.22674150031848683, 22.910957884046898, 126.64438235204729, 47.67465581335028, 62.657204833508125 
-167.9998103709719, 0.10401486609715146, 22.91095968288098, 125.95856957356321, 47.61477580559844, 62.65788114914147 
-168.91682831694374, -0.01256047737263045, 22.910960155345535, 125.2729490981939, 47.557961322013654, 62.65852299220762 
-169.83462094939497, -0.1229493548494224, 22.910959492410047, 124.58750890895317, 47.50421955726713, 62.65913025533758 
-170.7531526270493, -0.227118335552876, 22.910957876287434, 123.90223728122514, 47.45355731863419, 62.659702837491864 
-171.67238636318933, -0.3250357623869165, 22.910955480152545, 123.21712276545182, 47.40598102489164, 62.66024064388784 
-172.59228389253644, -0.4166717799448448, 22.910952467874942, 122.53215416997412, 47.36149670526395, 62.66074358593052 
-173.5128057404425, -0.5019983612177247, 22.910948993766276, 121.84732054401528, 47.3201099984209, 62.66121158114693 
-174.43391129429958, -0.5809893329301733, 22.910945202342685, 121.16261116079575, 47.281826151529366, 62.66164455312414 
-175.3555588770625, -0.653620399431107, 22.9109412281025, 120.47801550076869, 47.246650019361475, 62.662042431451 
-176.27770582277137, -0.7198691650703803, 22.910937195319544, 119.7935232349657, 47.214586063461326, 62.662405151663926 
-177.20030855395248, -0.7797151549962278, 22.91093321785221, 119.10912420844348, 47.18563835137254, 62.66273265519674 
-178.12332266076695, -0.8331398343126057, 22.910929398968822, 118.42480842382103, 47.159810555928125, 62.6630248893344 
-179.04670298177075, -0.8801266255398921, 22.91092583118922, 117.74056602489894, 47.13710595460479, 62.66328180717126 
-179.97040368614063, -0.9206609243271296, 22.910922596142978, 117.05638728035063, 47.117527428942935, 62.6635033675734 
179.1056216427848, -0.9547301133690052, 22.91091976444434, 116.37226256747788, 47.101077464033814, 62.663689535145544 
178.18141992280533, -0.982323574485818, 22.910917395584114, 115.68818235602097, 47.087758148075096, 62.66384028020215 
177.25703848716367, -1.0034326988300841, 22.910915537838616, 115.00413719201588, 47.07757117199594, 62.66395557874341 
176.33252499802006, -1.0180508951890148, 22.910914228195796, 114.32011768168918, 47.070517829152166, 62.66403541243525 
175.40792735926806, -1.0261735963576701, 22.910913492298636, 113.63611447538366, 47.06659901509263, 62.664079768594554 
174.483293628864, -1.027798263563493, 22.91091334440598, 112.95211825150551, 47.06581522739712, 62.66408864017853 
173.5586719308468, -1.0229243889287605, 22.91091378737067, 112.2681197004856, 47.068166565586075, 62.66406202577888 
172.63411036722408, -1.0115534959634205, 22.910914812635244, 111.58410950874669, 47.07365273110265, 62.66399992962072 
171.7096569299031, -0.9936891380868994, 22.910916400244965, 110.90007834266882, 47.082273027366725, 62.663902361565995 
170.7853594128433, -0.9693368951832996, 22.910918518878365, 110.21601683254445, 47.09402635990121, 62.66376933712172 
169.86126532460696, -0.9385043682005071, 22.910921125895175, 109.53191555651587, 47.108911236529934, 62.6636008774526 
168.93742180148317, -0.9012011718095928, 22.910924167401518, 108.84776502448649, 47.12692576764702, 62.663397009398636 
168.01387552135606, -0.857438925146757, 22.91092757833241, 108.16355566199796, 47.14806766655676, 62.663157765496855 
167.0906726184867, -0.8072312406658604, 22.91093128255137, 107.47927779406484, 47.17233424988345, 62.66288318400806 
166.16785859937286, -0.7505937111350457, 22.910935192967006, 106.79492162895848, 47.19972243805024, 62.66257330894757 
165.245478259846, -0.6875438948166285, 22.910939211666477, 106.11047724193153, 47.23022875582561, 62.66222819012075 
164.32357560356007, -0.6181012988743954, 22.9109432300656, 105.4259345588744, 47.263849332936466, 62.66184788316269 
163.40219376201935, -0.5422873610578668, 22.910947129075403, 104.74128333989454, 47.30057990474626, 62.66143244958234 
162.481374916287, -0.460125429717511, 22.91095077928497, 104.05651316280954, 47.34041581299646, 62.66098195681046 
161.56116022050767, -0.37164074220984045, 22.91095404116023, 103.37161340654461, 47.38335200660971, 62.660496478252 
160.64158972737025, -0.27686040175533205, 22.91095676525855, 102.68657323442449, 47.42938304255262, 62.65997609334255 
159.72270231562797, -0.17581335281630736, 22.910958792458672, 102.00138157734989, 47.4785030867561, 62.659420887608 
158.80453561978553, -0.06853035506556006, 22.910959954205886, 101.31602711684793, 47.53070591509094, 62.65883095272874 
157.88712596205156, 0.04495604398005847, 22.910960072772017, 100.6304982679859, 47.58598491439624, 62.658206386607006 
156.9705082866487, 0.1646115375837896, 22.910958961529786, 99.94478316213687, 47.644333083557946, 62.65754729343769 
156.05471609656047, 0.2904000895907851, 22.91095642524141, 99.25886962958592, 47.7057430346349, 62.656853783782786 
155.13978139278694, 0.4222839653251676, 22.910952260360816, 98.57274518196427, 47.77020699402929, 62.656125974648674 
154.2257346161702, 0.5602237634976708, 22.910946255349256, 97.88639699449932, 47.83771680369848, 62.65536398956652 
153.31260459184114, 0.7041784490375957, 22.91093819100376, 97.19981188806689, 47.908263922404956, 62.654567958675756 
152.40041847632824, 0.8541053867613498, 22.910927840798106, 96.51297631103238, 47.981839427000935, 62.65373801880987 
151.4892017073612, 1.0099603757887834, 22.910914971235794, 95.82587632086596, 48.05843401374406, 62.65287431358482 
150.57897795638956, 1.1716976846176654, 22.91089934221452, 95.13849756551755, 48.138037999640346, 62.65197699348999 
149.66976908383, 1.3392700867665157, 22.91088070740181, 94.45082526453534, 48.22064132381058, 62.651046215980855 
148.76159509704436, 1.5126288968955421, 22.9108588146211, 93.76284418991155, 48.30623354887599, 62.65008214557396 
147.85447411104192, 1.6917240073159125, 22.91083340624798, 93.0745386466388, 48.39480386235894, 62.649084953943245 
146.94842231189185, 1.876503924797915, 22.910804219615923, 92.3858924529587, 48.486341078094235, 62.64805482001814 
146.04345392282062, 2.06691580758951, 22.910770987430983, 91.69688892028405, 48.58083363764648, 62.64699193008295 
145.13958117296423, 2.262905502557577, 22.91073343819499, 91.00751083277527, 48.67826961172862, 62.64589647787702 
144.23681426873452, 2.4644175823656957, 22.91069129663659, 90.31774042655026, 48.77863670161687, 62.644768664696116 
143.33516136775356, 2.6713953826036883, 22.91064428414965, 89.62755936850645, 48.8819222405567, 62.643608699494315 
142.43462855530214, 2.8837810387859943, 22.910592119238338, 88.93694873473238, 48.98811319515485, 62.64241679898609 
141.53521982322235, 3.101515523137737, 22.910534517968408, 88.2458889884854, 49.09719616675171, 62.64119318774881 
140.63693705120858, 3.324538681089855, 22.91047119442404, 87.55435995771066, 49.20915739276836, 62.639938098325025 
139.7397799904152, 3.5527892674063755, 22.91040186116958, 86.8623408120758, 49.323982748022694, 62.638651771324454 
138.84374624930544, 3.7862049818701036, 22.91032622971571, 86.16981003949405, 49.441657746008154, 62.63733445552565 
137.94883128165992, 4.024722504454972, 22.91024401098927, 85.47674542210763, 49.56216754012924, 62.635986407976354 
137.05502837666182, 4.268277529916265, 22.910154915806228, 84.78312401170153, 49.68549692488707, 62.634607894093214 
136.16232865096924, 4.51680480173294, 22.91005865534717, 84.08892210451683, 49.81163033700844, 62.63319918776027 
135.270721042686, 4.770238145338615, 22.90995494163458, 83.39411521543082, 49.94055185651144, 62.63176057142549 
134.38019230713658, 5.028510500581335, 22.909843488011465, 82.69867805146986, 50.07224520770058, 62.63029233619591 
133.49072701435165, 5.291553953354808, 22.909724009620433, 82.00258448461946, 50.206693760084, 62.62879478193058 
132.60230754816737, 5.559299766347065, 22.90959622388291, 81.30580752389366, 50.34388052920523, 62.6272682173311 
131.7149141068425, 5.831678408855325, 22.9094598509776, 80.60831928662516, 50.48378817738163, 62.625712960029965 
130.82852470509522, 6.108619585619273, 22.90931461431773, 79.9100909689345, 50.62639901434141, 62.62412933667576 
129.94311517746388, 6.390052264627424, 22.909160241026278, 79.2110928153359, 50.77169499775073, 62.622517683015545 
129.05865918289376, 6.675904703854957, 22.908996462408794, 78.51129408743411, 50.91965773362252, 62.62087834397388 
128.1751282104553, 6.96610447689371, 22.908823014422993, 77.81066303166548, 51.07026847659746, 62.61921167372844 
127.29249158609949, 7.260578497438516, 22.908639638144578, 77.10916684603374, 51.22350813008854, 62.61751803578165 
126.41071648035684, 7.5592530425966284, 22.908446080228703, 76.4067716457885, 51.379357246278865, 62.61579780302853 
125.5297679168914, 7.862053774989881, 22.908242093366393, 75.70344242799254, 51.53779602596317, 62.61405135782033 
124.64960878182006, 8.168905763622137, 22.908027436735434, 74.99914303492078, 51.698804318222486, 62.61227909202337 
123.77019983371339, 8.479733503486973, 22.907801876445, 74.29383611623152, 51.862361619921224, 62.61048140707368 
122.89149971419481, 8.794460933893536, 22.907565185973564, 73.58748308984762, 52.02844707501547, 62.60865871402621 
122.01346495906049, 9.11301145549057, 22.907317146599446, 72.88004410148248, 52.19703947366085, 62.60681143359924 
121.13605000984423, 9.435307945971623, 22.907057547823364, 72.17147798274166, 52.36811725110801, 62.604939996213275 
120.25920722575663, 9.761272774446084, 22.906786187782636, 71.46174220772976, 52.54165848637292, 62.603044842024346 
119.38288689593158, 10.090827814463676, 22.90650287365624, 70.75079284808601, 52.71764090066901, 62.601126420951616 
118.50703725191792, 10.423894455681603, 22.906207422060316, 70.03858452637124, 52.8960418555876, 62.5991851926989 
117.63160448035802, 10.760393614165945, 22.905899659433672, 69.32507036772306, 53.07683835101192, 62.59722162677001 
116.75653273580114, 11.100245741320876, 22.905579422412572, 68.61020194969328, 53.2600070227505, 62.595236202477665 
115.88176415360319, 11.443370831440772, 22.905246558194456, 67.89392925017725, 53.44552413987382, 62.59322940894601 
115.00723886287071, 11.78968842788281, 22.90490092489008, 67.1762005933405, 53.633365601738205, 62.591201745106105 
114.13289499941231, 12.139117627858436, 22.904542391863608, 66.45696259344365, 53.823506934680054, 62.589153719684674 
113.25866871866575, 12.491577085844678, 22.904170840060115, 65.73616009646182, 54.01592328836238, 62.58708585118577 
112.38449420857593, 12.846985015616943, 22.9037861623202, 65.01373611939019, 54.2105894317552, 62.58499866786497 
111.51030370240386, 13.205259190907222, 22.90338826368114, 64.28963178712172, 54.40747974873017, 62.582892707696445 
110.63602749145392, 13.56631694469238, 22.902977061664295, 63.5637862667785, 54.60656823324891, 62.580768518332235 
109.76159393771263, 13.930075167119014, 22.902552486548288, 62.836136699372105, 54.80782848412359, 62.57862665705396 
108.88692948639881, 14.29645030207259, 22.902114481627613, 62.10661812866272, 55.01123369932709, 62.57646769071662 
108.01195867843215, 14.665358342399612, 22.90166300345632, 61.37516342708116, 55.216756669828946, 62.57429219568454 
107.13660416283379, 15.036714823793199, 22.90119802207642, 60.641703218571216, 55.42436977293225, 62.57210075775922 
106.2607867090803, 15.410434817353273, 22.90071952123069, 59.90616579820369, 55.63404496508492, 62.5698939720989 
105.38442521943934, 15.786432920834176, 22.900227498559577, 59.16847704840672, 55.84575377413789, 62.56767244313 
104.50743674132329, 16.16462324859321, 22.899721965781932, 58.42856035165008, 56.059467291021, 62.56543678445032 
