# MEX_intpoint_lon [deg], MEX_intpoint_lat [deg], MEX_intpoint_angle [deg], TGO_intpoint_lon [deg], TGO_intpoint_lat [deg], TGO_intpoint_angle [deg] 
-104.79401840485393, 20.6156911111331, 22.81497681181817, -179.01602250866816, 58.82010912041461, 62.53571595345197 
-105.68723694784384, 20.22255352013967, 22.81562260708088, -179.797120552369, 58.59025346954696, 62.538012745357584 
-106.57874571463313, 19.830558077369336, 22.816256359017242, 179.42519126507602, 58.36198211621464, 62.54030338024192 
-107.46864639899911, 19.439797000286553, 22.8168778890006, 178.6507994509022, 58.135330091774286, 62.54258716490034 
-108.35703905748036, 19.050361822031665, 22.817487032987348, 177.8795942647299, 57.91033182526014, 62.54486341321337 
-109.24402208974989, 18.66234341403369, 22.818083641536376, 177.11146958286295, 57.68702116143703, 62.54713144633896 
-110.12969222013196, 18.27583200762868, 22.81866757981102, 176.3463227680106, 57.46543137780585, 62.54939059289685 
-111.01414448011774, 17.890917214651644, 22.819238727563324, 175.58405454422245, 57.24559520061411, 62.55164018914424 
-111.89747219174821, 17.507688046971325, 22.819796979100932, 174.82456887683105, 57.02754481992121, 62.553879579143484 
-112.77976695174154, 17.126232934939996, 22.820342243236475, 174.06777285720185, 56.81131190376565, 62.55610811492126 
-113.66111861625386, 16.74663974473134, 22.82087444321977, 173.31357659209544, 56.59692761147868, 62.55832515661955 
-114.5416152861709, 16.368995794542176, 22.821393516652776, 172.56189309745318, 56.384422606186995, 62.560530072638386 
-115.42134329283854, 15.993387869634507, 22.82189941538761, 171.8126381964221, 56.17382706654457, 62.562722239770146 
-116.3003871841495, 15.619902236196545, 22.82239210540769, 171.06573042144242, 55.96517069773158, 62.56490104332584 
-117.17882971091119, 15.248624654002587, 22.822871566692264, 170.32109092022515, 55.758482741756964, 62.56706587725297 
-118.05675181343035, 14.879640387852838, 22.82333779306445, 169.57864336545472, 55.55379198709862, 62.569216144245615 
-118.9342326082568, 14.513034217775997, 22.823790792023182, 168.83831386805647, 55.351126777713986, 62.57135125584589 
-119.81134937503757, 14.148890447978317, 22.824230584559064, 168.10003089387507, 55.15051502145197, 62.573470632538026 
-120.68817754344059, 13.787292914524455, 22.82465720495467, 167.3637251836157, 54.95198419789566, 62.575573703834 
-121.5647906801147, 13.4283249917364, 22.825070700569405, 166.62932967590518, 54.75556136566367, 62.57765990835164 
-122.44126047565952, 13.07206959729837, 22.825471131609227, 165.89677943333638, 54.561273169196845, 62.57972869388479 
-123.31765673158743, 12.718609196056367, 22.82585857088171, 165.16601157136324, 54.369145845055584, 62.58177951746598 
-124.19404734726503, 12.368025802502846, 22.8262331035366, 164.43696518992152, 54.17920522775182, 62.58381184542144 
-125.07049830683006, 12.020400981937863, 22.826594826792345, 163.7095813076519, 53.99147675513861, 62.58582515341872 
-125.94707366608482, 11.675815850299665, 22.82694384964897, 162.98380279861078, 53.805985473379216, 62.58781892650706 
-126.82383553937464, 11.334351072658901, 22.8272802925876, 162.25957433135616, 53.622756041516524, 62.58979265915066 
-127.70084408646575, 10.9960868603721, 22.827604287257152, 161.53684231030152, 53.44181273566252, 62.591745855254594 
-128.57815749944257, 10.661102966891677, 22.827915976148564, 160.81555481923579, 53.26317945282705, 62.59367802818447 
-129.45583198965124, 10.329478682230974, 22.82821551225701, 160.09566156691022, 53.0868797144037, 62.59558870077862 
-130.3339217747207, 10.001292826084802, 22.828503058732494, 159.37711383459927, 52.91293666933029, 62.59747740535444 
-131.2124790656991, 9.676623739607322, 22.828778788519475, 158.65986442554387, 52.741373096940535, 62.59934368370786 
-132.0915540543482, 9.35554927585118, 22.82904288398576, 157.94386761619228, 52.572211409522545, 62.6011870871068 
-132.97119490064273, 9.03814678887324, 22.82929553654135, 157.22907910915475, 52.405473654599476, 62.60300717627851 
-133.85144772052882, 8.72449312151464, 22.82953694624767, 156.5154559877939, 52.24118151694689, 62.604803521391226 
-134.73235657399698, 8.414664591864602, 22.82976732141769, 155.8029566723744, 52.079356320360574, 62.60657570202995 
-135.6139634535326, 8.108736978419516, 22.8299868782075, 155.09154087770028, 51.92001902918837, 62.608323307166835 
-136.49630827300925, 7.806785503951155, 22.830195840199877, 154.38116957217002, 51.76319024963869, 62.610045935126486 
-137.3794288570952, 7.508884818100143, 22.8303944379804, 153.6718049381837, 51.60889023087818, 62.61174319354584 
-138.26336093124527, 7.215108978712984, 22.83058290870659, 152.9634103338387, 51.45713886593031, 62.61341469932961 
-139.14813811235734, 6.925531431943407, 22.830761495670814, 152.25595025585295, 51.307955692386166, 62.61506007860072 
-140.0337919001712, 6.640224991141629, 22.83093044785735, 151.54939030365892, 51.16135989293863, 62.61667896664656 
-140.92035166949412, 6.35926181455722, 22.83109001949433, 150.8436971446112, 51.01737029575039, 62.61827100786096 
-141.80784466333847, 6.082713381884306, 22.831240469601042, 150.13883848025662, 50.87600537466592, 62.61983585568227 
-142.69629598705833, 5.810650469680462, 22.8313820615313, 149.43478301361478, 50.73728324927723, 62.62137317252739 
-143.58572860357538, 5.5431431256933275, 22.83151506251341, 148.7315004174212, 50.60122168485307, 62.62288262972271 
-144.4761633297845, 5.2802606421319105, 22.831639743187317, 148.02896130328656, 50.4678380921403, 62.62436390743138 
-145.36761883423145, 5.022071527922529, 22.831756377139616, 147.32713719172799, 50.33714952704663, 62.62581669457781 
-146.26011163615468, 4.768643479992011, 22.83186524043702, 146.62600048302983, 50.20917269021311, 62.62724068876904 
-147.15365610598536, 4.520043353623849, 22.831966611158805, 145.92552442889328, 50.08392392648448, 62.6286355962138 
-148.04826446739727, 4.276337131936093, 22.83206076892903, 145.2256831048367, 49.96141922428553, 62.630001131638984 
-148.94394680099947, 4.037589894532309, 22.83214799444891, 144.52645138330885, 49.84167421491099, 62.631337018204135 
-149.84071104976246, 3.803865785380391, 22.83222856903024, 143.82780490748067, 49.724704171736484, 62.632642987414016 
-150.73856302626783, 3.5752279799764195, 22.83230277413018, 143.12972006568054, 49.61052400935778, 62.63391877902941 
-151.6375064218683, 3.3517386518540317, 22.832370890888292, 142.432173966442, 49.49914828266512, 62.6351641409767 
-152.53754281784387, 3.133458938502234, 22.8324331996662, 141.73514441413184, 49.390591185859584, 62.636378829255996 
-153.43867169863563, 2.9204489067576156, 22.832489979590704, 141.03860988512997, 49.28486655141783, 62.63756260784871 
-154.3408904672359, 2.712767517739391, 22.83254150810074, 140.34254950453226, 49.181987849011634, 62.63871524862381 
-155.24419446280908, 2.5104725913982513, 22.832588060498914, 139.64694302334937, 49.08196818438826, 62.63983653124433 
-156.14857698061374, 2.3136207707524656, 22.83262990950824, 138.95177079617605, 48.98482029821754, 62.640926243072855 
-157.05402929429005, 2.1222674858870167, 22.832667324834414, 138.25701375930615, 48.890556564911506, 62.64198417907751 
-157.96054068057308, 1.936466917793518, 22.832700572734627, 137.5626534092692, 48.799188991421886, 62.643010141737975 
-158.8680984464849, 1.7562719621307563, 22.832729915592996, 136.86867178176698, 48.710729216020965, 62.644003940951684 
-159.77668795905282, 1.5817341929873563, 22.832755611503583, 136.17505143098754, 48.62518850707092, 62.64496539394101 
-160.68629267759457, 1.4129038267296994, 22.83277791386136, 135.48177540927668, 48.54257776178649, 62.645894325161024 
-161.59689418860262, 1.2498296860195601, 22.832797070961607, 134.78882724714668, 48.4629075049959, 62.6467905662084 
-162.50847224325415, 1.0925591640869512, 22.832813325608466, 134.09619093360374, 48.38618788790466, 62.64765395573139 
-163.42100479756292, 0.9411381893445486, 22.83282691473297, 133.40385089677594, 48.312428686866575, 62.64848433934154 
-164.33446805518335, 0.7956111904306318, 22.83283806902121, 132.71179198482423, 48.24163930216634, 62.64928156952686 
-165.24883651286606, 0.6560210617679196, 22.83284701255299, 132.01999944712017, 48.17382875681779, 62.650045505566744 
-166.16408300855704, 0.5224091297253594, 22.832853962451583, 131.32845891567425, 48.10900569538185, 62.65077601344905 
-167.08017877212285, 0.39481511947003295, 22.83285912854497, 130.63715638679992, 48.04717838280772, 62.65147296578939 
-167.99709347867434, 0.27327712259543185, 22.83286271303902, 129.9460782029983, 47.9883547033012, 62.65213624175263 
-168.91479530445315, 0.15783156561163347, 22.83286491020305, 129.25521103505017, 47.93254215922348, 62.652765726977094 
-169.8332509852349, 0.04851317938161569, 22.83286590606825, 128.56454186430105, 47.87974787002357, 62.653361313501236 
-170.75242587719367, -0.05464503041364545, 22.83286587813921, 127.8740579651273, 47.829978571207775, 62.65392289969351 
-171.67228402016266, -0.15161181170048546, 22.832864995119103, 127.18374688757012, 47.78324061334885, 62.65445039018485 
-172.5927882032172, -0.24235769324962833, 22.83286341664884, 126.49359644012604, 47.73953996113795, 62.65494369580457 
-173.51390003249642, -0.32685501064899963, 22.832861293060457, 125.80359467268192, 47.69888219248178, 62.65540273351942 
-174.43558000117056, -0.40507793093909755, 22.832858765145136, 125.11372985958396, 47.66127249764757, 62.655827426376035 
-175.3577875614527, -0.47700247584071626, 22.832855963936236, 124.42399048282931, 47.62671567845816, 62.65621770344698 
-176.28048119854537, -0.5426065435085856, 22.83285301050747, 123.73436521537074, 47.59521614753923, 62.65657349978027 
-177.20361850640293, -0.6018699287479462, 22.832850015786583, 123.0448429045234, 47.566777927620954, 62.65689475635275 
-178.12715626518454, -0.6547743416352746, 22.83284708038483, 122.35541255546471, 47.54140465089563, 62.65718142002743 
-179.05105052026454, -0.7013034244886776, 22.832844294442335, 121.66606331481766, 47.51909955843302, 62.65743344351438 
-179.97525666265975, -0.7414427671378565, 22.832841737489673, 120.976784454308, 47.49986549965508, 62.657650785335875 
179.10027048927205, -0.77517992044858, 22.83283947832583, 120.28756535448693, 47.48370493187127, 62.65783340979562 
178.17557660701405, -0.8025044080613162, 22.83283757491262, 119.5983954885098, 47.470619919875574, 62.657981286952065 
177.25070776811032, -0.8234077363090193, 22.8328360742858, 118.90926440596272, 47.46061213560643, 62.6580943925957 
176.32571037158385, -0.8378834022843508, 22.832835012482995, 118.22016171672833, 47.45368285787035, 62.65817270823108 
175.40063105271784, -0.845926900032109, 22.8328344144884, 117.53107707488225, 47.449832972129805, 62.65821622106241 
174.4755165973677, -0.8475357248481441, 22.832834294194583, 116.84200016261225, 47.44906297035618, 62.65822492398416 
173.5504138559735, -0.8427093756719075, 22.832834654381095, 116.15292067415162, 47.45137295094785, 62.658198815575524 
172.6253696574434, -0.831449355565314, 22.832835486710287, 115.4638282997186, 47.456762618713796, 62.65813790009926 
171.70043072308056, -0.8137591702764839, 22.832836771740062, 114.77471270945396, 47.46523128492278, 62.65804218750506 
170.7756435807236, -0.7896443248927801, 22.832838478953654, 114.08556353734814, 47.47677786741786, 62.65791169343706 
169.8510544792725, -0.7591123185931219, 22.83284056680642, 113.39637036515018, 47.49140089079604, 62.657746439245734 
168.92670930376735, -0.7221726375154927, 22.8328429827895, 112.70712270624982, 47.50909848665253, 62.657546452004055 
168.002653491187, -0.6788367457610577, 22.832845663510337, 112.0178099895248, 47.529868393889195, 62.65731176452787 
167.07893194713003, -0.6291180745619133, 22.83284853478994, 111.32842154314461, 47.553707959086076, 62.65704241540058 
166.1555889635372, -0.5730320096448044, 22.832851511776653, 110.63894657832215, 47.58061413693541, 62.65673844900189 
165.23266813761003, -0.510595876828586, 22.832854499076483, 109.94937417300486, 47.61058349073675, 62.656399915540675 
164.3102122920738, -0.44182892589806966, 22.832857390899584, 109.25969325549616, 47.64361219295219, 62.656026871091925 
163.38826339692918, -0.3667523128019301, 22.83286007122294, 108.56989258799808, 47.679696025819936, 62.655619377637535 
162.466862492828, -0.28538908022696524, 22.83286241396874, 107.87996075006588, 47.718830382025004, 62.65517750311119 
161.54604961620362, -0.19776413660538852, 22.832864283198525, 107.18988612196499, 47.76101026542497, 62.654701321446765 
160.62586372627763, -0.10390423361603653, 22.83286553332262, 106.49965686792042, 47.80623029182908, 62.6541909126306 
159.70634263405682, -0.0038379422442712413, 22.832866009324654, 105.8092609192484, 47.85448468982848, 62.653646362757236 
158.78752293342677, 0.1024043725310657, 22.83286554700084, 105.11868595735965, 47.90576730167548, 62.653067764088746 
157.86943993443845, 0.2147905783519413, 22.832863973213815, 104.42791939662362, 47.96007158420932, 62.65245521511721 
156.95212759887647, 0.3332868033219984, 22.832861106160465, 103.73694836708228, 48.01739060982595, 62.65180882063054 
156.0356184781878, 0.457857464996621, 22.832856755653676, 103.0457596970015, 48.07771706748906, 62.651128691781395 
155.11994365384055, 0.5884653004424748, 22.832850723417323, 102.35433989524837, 48.14104326377955, 62.65041494615887 
154.2051326801725, 0.7250713972846937, 22.83284280339439, 101.66267513348133, 48.20736112398029, 62.64966770786306 
153.29121352978137, 0.867635225658251, 22.832832782067648, 100.97075122814023, 48.276662193193005, 62.64888710758228 
152.3782125414957, 1.016114670978642, 22.83282043879248, 100.27855362222247, 48.34893763748391, 62.64807328267267 
151.4661543709606, 1.1704660674458665, 22.832805546141465, 99.58606736683106, 48.42417824505468, 62.647226377240024 
150.55506194385816, 1.3306442321949985, 22.832787870260198, 98.89327710247962, 48.50237442743477, 62.64634654222384 
149.64495641177766, 1.4966025000062448, 22.83276717123396, 98.20016704013868, 48.58351622069154, 62.64543393548322 
148.73585711073775, 1.668292758487133, 22.832743203464698, 97.50672094200743, 48.667593286653975, 62.6444887218846 
147.8277815223575, 1.8456654836397288, 22.832715716057773, 96.81292210199342, 48.75459491414575, 62.64351107339073 
146.92074523766183, 2.0286697757261174, 22.83268445321806, 96.11875332588315, 48.84451002022355, 62.64250116915148 
146.01476192350032, 2.2172533953463027, 22.832649154654813, 95.42419691118444, 48.93732715141579, 62.64145919559535 
145.10984329155036, 2.411362799643359, 22.832609555994775, 94.72923462662183, 49.03303448495724, 62.6403853465221 
144.20599906986712, 2.610943178552122, 22.83256538920301, 94.03384769126444, 49.13161983001455, 62.639279823196134 
143.30323697693757, 2.815938491009046, 22.832516383010827, 93.33801675326528, 49.23307062889773, 62.63814283444028 
142.40156269818678, 3.02629150104256, 22.83246226335036, 92.64172186819002, 49.337373958252286, 62.63697459673 
141.50097986488126, 3.241943813665025, 22.832402753795073, 91.94494247691209, 49.44451653022654, 62.63577533428747 
140.60149003536577, 3.4628359104895967, 22.832337576005756, 91.24765738304988, 49.554484693608636, 62.63454527917586 
139.70309267856706, 3.688907184997278, 22.83226645018131, 90.54984472992099, 49.667264434927326, 62.63328467139276 
138.8057851596912, 3.9200959773820583, 22.83218909551379, 89.8514819769869, 49.782841379510614, 62.63199375896334 
137.90956272803876, 4.156339608904276, 22.83210523064712, 89.15254587576064, 49.901200792496034, 62.63067279803263 
137.0144185068574, 4.3975744156850585, 22.832014574138807, 88.45301244514843, 50.022327579786094, 62.62932205295668 
136.12034348514743, 4.643735781877471, 22.831916844924084, 87.7528569461952, 50.14620628894233, 62.62794179639225 
135.22732651133524, 4.894758172152497, 22.831811762781914, 87.05205385620216, 50.27282111001112, 62.626532309385325 
134.33535428872514, 5.150575163441189, 22.831699048802154, 86.35057684218366, 50.40215587627419, 62.62509388145751 
133.4444113726395, 5.411119475876822, 22.83157842585333, 85.64839873362847, 50.53419406491636, 62.62362681069065 
132.5544801691554, 5.676323002884201, 22.8314496190504, 84.94549149452949, 50.66891879760329, 62.62213140380903 
131.66554093534532, 5.946116840365802, 22.831312356221847, 84.24182619464398, 50.806312840960885, 62.62060797625923 
130.77757178092904, 6.220431314937793, 22.831166368375566, 83.53737297994459, 50.946358606948955, 62.619056852287216 
129.89054867124347, 6.4991960111715334, 22.831011390162782, 82.83210104222023, 51.089038153120086, 62.61747836501248 
129.00444543143843, 6.7823397977994455, 22.83084716033965, 82.12597858778274, 51.234333182755485, 62.61587285649891 
128.11923375180666, 7.069790852846663, 22.830673422225598, 81.41897280523483, 51.38222504486871, 62.61424067782248 
127.23488319415777, 7.361476687653089, 22.830489924158126, 80.71104983225146, 51.532694734068016, 62.61258218913505 
126.35136119914755, 7.657324169753133, 22.830296419943206, 80.00217472132522, 51.685722890267556, 62.61089775972446 
125.46863309447616, 7.957259544582995, 22.830092669300868, 79.29231140442391, 51.84128979823761, 62.60918776807047 
124.58666210387068, 8.261208455988527, 22.829878438305315, 78.58142265650616, 51.99937538698348, 62.60745260189631 
123.70540935677097, 8.569095965508685, 22.82965349981893, 77.86947005783847, 52.15995922894213, 62.60569265821593 
122.82483389863945, 8.880846570412855, 22.829417633919746, 77.15641395505415, 52.323020538985524, 62.603908343376304 
121.94489270182063, 9.196384220472092, 22.829170628321666, 76.44221342089277, 52.4885381732191, 62.602100073094775 
121.06554067687743, 9.515632333447366, 22.828912278786955, 75.72682621255461, 52.65649062756311, 62.60026827249144 
120.18673068433746, 9.838513809279641, 22.828642389530486, 75.0102087286032, 52.82685603610445, 62.59841337611579 
119.30841354678479, 10.164951042969335, 22.828360773615085, 74.29231596434443, 52.99961216920578, 62.59653582796835 
118.43053806123794, 10.494865936134458, 22.8280672533376, 73.57310146560877, 53.17473643135831, 62.594636081516 
117.5530510117592, 10.828179907238951, 22.82776166060507, 72.85251728085923, 53.35220585876406, 62.592714599701594 
116.67589718224492, 11.16481390048486, 22.827443837300514, 72.13051391154386, 53.531997116632695, 62.59077185494766 
115.79901936935185, 11.504688393363347, 22.827113635637946, 71.40704026060898, 53.714086496177515, 62.58880832915336 
114.92235839551898, 11.847723402862165, 22.826770918505936, 70.6820435790843, 53.89844991129437, 62.586824513685364 
114.04585312205094, 12.19383849032797, 22.826415559799518, 69.95546941064866, 54.085062894906514, 62.584820909361845 
113.16944046223328, 12.542952764984404, 22.826047444739746, 69.22726153407932, 54.273900594957894, 62.58279802642984 
112.29305539445649, 12.894984886107707, 22.82566647018064, 68.4973619034851, 54.464937770036, 62.58075638453551 
111.4166309753314, 13.249853063863775, 22.825272544903065, 67.76571058621815, 54.65814878460529, 62.578696512687394 
110.54009835278468, 13.60747505881143, 22.82486558989505, 67.03224569835533, 54.85350760383043, 62.576618949212666 
109.66338677912955, 13.96776818007853, 22.82444553861828, 66.29690333763499, 55.05098778796832, 62.574524241705376 
108.78642362411284, 14.330649282218754, 22.82401233726038, 65.55961751373022, 55.250562486306414, 62.57241294696806 
107.90913438794733, 14.696034760758023, 22.82356594497252, 64.82032007573488, 55.45220443062377, 62.57028563094501 
107.0314427143439, 15.063840546441186, 22.82310633409215, 64.07894063673297, 55.65588592815029, 62.568142868648394 
106.15327040356615, 15.433982098190471, 22.82263349035052, 63.33540649531747, 55.861578853998, 62.56598524407629 
105.27453742553674, 15.806374394788767, 22.822147413064595, 62.58964255391808, 56.06925464303749, 62.56381335012278 
