# MEX_intpoint_lon [deg], MEX_intpoint_lat [deg], MEX_intpoint_angle [deg], TGO_intpoint_lon [deg], TGO_intpoint_lat [deg], TGO_intpoint_angle [deg] 
-104.33567914260914, 20.51257704802878, 22.534578516244835, -162.14884550704275, 59.14622733860497, 62.52895605291771 
-105.23762884486784, 20.13375894451463, 22.535190014482698, -162.94805490276013, 58.925960359721856, 62.53114284400473 
-106.13787550149492, 19.756001130677067, 22.535790461500984, -163.74369927497196, 58.707169570826935, 62.53332405491039 
-107.03651485138418, 19.379394406894516, 22.536379687618407, -164.53589212877898, 58.4898904742291, 62.53549902506793 
-107.93364118327494, 19.004028900362936, 22.536957536533684, -165.32474339686243, 58.27415794269558, 62.537667100313335 
-108.82934731071913, 18.629994084246633, 22.53752386534513, -166.11035956022113, 58.06000623782554, 62.539827633069976 
-109.72372454838683, 18.25737879599956, 22.538078544554, -166.89284376463849, 57.84746902742347, 62.54197998252547 
-110.61686268957565, 17.88627125482135, 22.538621458051857, -167.67229593300348, 57.63657940191928, 62.54412351480147 
-111.50884998479953, 17.516759078214573, 22.539152503091763, -168.448812873613, 57.42736988987942, 62.54625760311543 
-112.39977312134052, 17.14892929761222, 22.539671590243564, -169.22248838458208, 57.21987247265165, 62.548381627935434 
-113.28971720365811, 16.782868373045634, 22.540178643333316, -169.99341335448932, 57.0141185981837, 62.55049497712703 
-114.1787657345575, 16.41866220682585, 22.54067359936693, -170.76167585938347, 56.81013919405476, 62.55259704609295 
-115.06700059702756, 16.056396156212696, 22.541156408438198, -171.5273612562763, 56.60796467975632, 62.55468723790501 
-115.95450203666832, 15.696155045047579, 22.54162703362143, -172.29055227324537, 56.40762497825752, 62.55676496342887 
-116.84134864463427, 15.33802317432792, 22.54208545084876, -173.0513290962679, 56.20914952688863, 62.55882964144127 
-117.72761734102897, 14.98208433170239, 22.542531648772375, -173.8097694529054, 56.01256728757425, 62.560880698739666 
-118.61338335869351, 14.628421799868022, 22.542965628611885, -174.56594869295492, 55.817906756447016, 62.56291757024494 
-119.49872022733895, 14.277118363851166, 22.543387403987072, -175.31993986618195, 55.62519597287048, 62.56493969909654 
-120.38369975797995, 13.92825631715651, 22.543797000736213, -176.07181379724582, 55.43446252789912, 62.56694653674057 
-121.26839202763415, 13.58191746676893, 22.54419445672027, -176.8216391579258, 55.245733572201665, 62.56893754301061 
-122.15286536425816, 13.23818313699519, 22.5445798216133, -177.56948253675333, 55.05903582347313, 62.570912186201774 
-123.03718633189835, 12.897134172133175, 22.544953156679227, -178.31540850615283, 54.87439557335953, 62.572869943137434 
-123.92141971604043, 12.558850937958432, 22.54531453453544, -179.0594796871903, 54.69183869391816, 62.57481029922937 
-124.80562850914839, 12.223413322018626, 22.54566403890346, -179.80175681202513, 54.511390643635636, 62.57673274853121 
-125.68987389638977, 11.890900732728452, 22.546001764347075, 179.4577012158406, 54.33307647302435, 62.578636793784746 
-126.57421524154903, 11.561392097258787, 22.54632781599828, 178.71883726342665, 54.156920829817786, 62.58052194646057 
-127.45871007313856, 11.234965858215292, 22.546642309271302, 177.9815959121652, 53.98294796378344, 62.582387726791325 
-128.34341407071972, 10.911699969103573, 22.54694536956537, 177.24592340373408, 53.811181731172056, 62.58423366379945 
-129.22838105145425, 10.591671888579198, 22.54723713195632, 176.51176758775102, 53.641645598820475, 62.58605929531855 
-130.11366295690993, 10.274958573482898, 22.547517740877606, 175.7790778712519, 53.47436264792521, 62.587864168008544 
-130.99930984015018, 9.961636470662597, 22.547787349791204, 175.04780516987657, 53.30935557750246, 62.58964783736524 
-131.8853698531413, 9.651781507586197, 22.54804612084871, 174.3179018606904, 53.14664670755047, 62.59140986772427 
-132.7718892345173, 9.345469081750192, 22.548294224543167, 173.58932173657152, 52.986257981928574, 62.59314983225911 
-133.65891229774428, 9.042774048891767, 22.548531839352126, 172.86201996209687, 52.828210970967646, 62.594867312974195 
-134.5464814197331, 8.743770710013528, 22.548759151372302, 172.13595303086166, 52.67252687382515, 62.596561900692556 
-135.43463702995098, 8.448532797232149, 22.548976353946404, 171.41107872417098, 52.51922652059814, 62.59823319503843 
-136.32341760008765, 8.157133458464362, 22.549183647282646, 170.68735607104287, 52.36833037420676, 62.599880804415186 
-137.21285963433547, 7.8696452409659035, 22.549381238067316, 169.96474530946614, 52.21985853206031, 62.60150434597846 
-138.10299766034404, 7.586140073741098, 22.549569339071105, 169.24320784885708, 52.07383072751769, 62.60310344560479 
-138.99386422091663, 7.3066892488430355, 22.549748168749584, 168.52270623366232, 51.93026633115304, 62.604677737856036 
-139.88548986651418, 7.031363401586959, 22.54991795083835, 167.80320410805683, 51.78918435183799, 62.60622686593964 
-140.7779031486391, 6.760232489701335, 22.5500789139435, 167.08466618168794, 51.6506034376502, 62.60775048166509 
-141.67113061417004, 6.493365771444036, 22.550231291127837, 166.36705819641833, 51.51454187661884, 62.60924824539653 
-142.56519680072284, 6.230831782713189, 22.550375319493444, 165.65034689402356, 51.38101759731635, 62.610719826001926 
-143.46012423311348, 5.972698313185, 22.550511239761125, 164.93449998479946, 51.25004816930572, 62.612164900798945 
-144.3559334210001, 5.719032381513219, 22.55063929584731, 164.21948611703903, 51.12165080345265, 62.61358315549779 
-145.25264285778195, 5.469900209627738, 22.550759734438927, 163.50527484733857, 50.99584235211085, 62.614974284140956 
-146.15026902083446, 5.225367196172267, 22.55087280456691, 162.7918366116945, 50.872639309189154, 62.61633798904049 
-147.0488263731583, 4.985497889123528, 22.55097875717871, 162.07914269735426, 50.752057810108504, 62.617673980712745 
-147.948327366521, 4.750355957637381, 22.551077844710633, 161.3671652153865, 50.63411363165643, 62.61898197781079 
-148.84878244616945, 4.5200041631694345, 22.551170320660304, 160.65587707393593, 50.51882219174687, 62.620261707054745 
-149.75020005718886, 4.29450432992071, 22.55125643916005, 159.94525195213123, 50.406198549092395, 62.62151290316043 
-150.65258665258426, 4.073917314661087, 22.55133645455159, 159.2352642746144, 50.29625740279614, 62.62273530876629 
-151.55594670315705, 3.8583029759859913, 22.551410620962695, 158.52588918666203, 50.18901309186997, 62.623928674358716 
-152.46028270924808, 3.647720143064134, 22.551479191886337, 157.8171025298697, 50.08447959468579, 62.62509275819646 
-153.36559521441492, 3.442226583936421, 22.551542419762878, 157.10888081837217, 49.98267052836616, 62.626227326233824 
-154.27188282110848, 3.2418789734285323, 22.551600555565923, 156.40120121557328, 49.88359914812055, 62.6273321520431 
-155.17914220841007, 3.0467328607416726, 22.55165384839221, 155.69404151135979, 49.787278346533036, 62.62840701673652 
-156.08736815188684, 2.856842636788194, 22.55170254505631, 154.98738009977572, 49.69372065280726, 62.6294517088875 
-156.99655354561693, 2.672261501340661, 22.551746889690463, 154.28119595713332, 49.60293823197439, 62.63046602445209 
-157.906689426434, 2.4930414300646135, 22.55178712335024, 153.57546862053889, 49.51494288406912, 62.63144976669014 
-158.8177650004323, 2.319233141507075, 22.55182348362641, 152.87017816681214, 49.4297460432792, 62.63240274608675 
-159.72976767177022, 2.15088606411411, 22.551856204263643, 152.16530519177797, 49.34735877707342, 62.633324780274116 
-160.64268307380254, 1.9880483033520775, 22.551885514786505, 151.46083078991217, 49.26779178531265, 62.634215693954054 
-161.55649510256634, 1.8307666090083905, 22.551911640133213, 150.75673653432105, 49.19105539934907, 62.63507531882098 
-162.4711859526383, 1.6790863427481886, 22.551934800297683, 150.05300445703782, 49.117159581117534, 62.63590349348622 
-163.38673615537405, 1.5330514460042186, 22.55195520998031, 149.3496170296179, 49.04611392222377, 62.63670006340333 
-164.30312461953343, 1.3927044082774056, 22.551973078247965, 148.64655714401647, 48.97792764303333, 62.6374648807944 
-165.22032867428717, 1.2580862359258635, 22.551988608203636, 147.9438080937327, 48.91260959176542, 62.6381978045784 
-166.1383241145941, 1.1292364215199955, 22.552001996666185, 147.2413535552048, 48.85016824359526, 62.63889870030065 
-167.0570852489281, 1.0061929138408365, 22.55201343386063, 146.53917756944142, 48.790611699768796, 62.63956744006438 
-167.97658494932847, 0.8889920885983064, 22.552023103119257, 145.8372645238748, 48.73394768673305, 62.640203902464144 
-168.89679470373676, 0.7776687199450655, 22.55203118059426, 145.13559913442288, 48.68018355528567, 62.640807972521344 
-169.8176846705772, 0.6722559528604575, 22.552037834981864, 144.43416642774574, 48.62932627974663, 62.64137954162193 
-170.73922373552736, 0.5727852764776721, 22.5520432272587, 143.7329517236854, 48.58138245715512, 62.64191850745674 
-171.66137957042034, 0.4792864984253241, 22.5520475104305, 143.03194061787505, 48.536358306494726, 62.642424773963874 
-172.5841186942083, 0.3917877202528652, 22.552050829293538, 142.33111896450728, 48.49425966794915, 62.64289825127431 
-173.50740653591296, 0.3103153140067501, 22.552053320209282, 141.6304728592489, 48.4550920021914, 62.64333885565971 
-174.4312074994775, 0.23489390002183363, 22.552055110892237, 140.92998862229194, 48.418860389708655, 62.6437465094836 
-175.35548503042912, 0.16554632598960467, 22.55205632021157, 140.22965278152975, 48.38556953016499, 62.64412114115503 
-176.2802016842535, 0.10229364736170142, 22.552057058006593, 139.52945205584768, 48.3552237418041, 62.64446268508582 
-177.20531919637492, 0.04515510914399773, 22.552057424916484, 138.82937333851905, 48.32782696089399, 62.64477108165056 
-178.13079855362994, -0.005851870867202782, 22.55205751222423, 138.1294036806953, 48.30338274121513, 62.64504627715012 
-179.0566000671163, -0.05071171735907761, 22.552057401715434, 137.4295302749821, 48.28189425359406, 62.64528822377834 
-179.98268344629258, -0.0894107112424473, 22.552057165551652, 136.7297404390908, 48.26336428548353, 62.64549687959232 
179.0909921258014, -0.12193700181865011, 22.552056866158832, 136.03002159955716, 48.247795240590655, 62.64567220848594 
178.16446791633658, -0.14828061733787126, 22.552056556130808, 135.33036127551756, 48.23518913855414, 62.64581418016709 
177.23778556563886, -0.16843347391827984, 22.55205627814803, 134.6307470625343, 48.22554761467165, 62.64592277013837 
176.31098700942695, -0.18238938280000694, 22.552056064911657, 133.93116661646118, 48.218871919677966, 62.645997959681516 
175.38411440048918, -0.19014405591266864, 22.55205593909305, 133.23160763734066, 48.21516291957481, 62.64603973584539 
174.45721002994705, -0.19169510974024767, 22.55205591329875, 132.53205785332426, 48.21442109551258, 62.64604809143753 
173.530316248255, -0.18704206747191113, 22.55205599005103, 131.83250500460758, 48.21664654372465, 62.646023025019716 
172.60347538608653, -0.17618635943250063, 22.55205616178403, 131.1329368273717, 48.22183897551419, 62.64596454090692 
171.67672967525874, -0.15913132179141343, 22.552056410855382, 130.4333410377224, 48.229997717293635, 62.6458726491701 
170.7501211698448, -0.13588219355362005, 22.5520567095735, 129.7337053156191, 48.24112171067668, 62.64574736564275 
169.82369166762575, -0.10644611184175626, 22.552057020240287, 129.03401728878438, 48.25520951262261, 62.645588711930976 
168.89748263202958, -0.07083210548301397, 22.552057295209416, 128.33426451658679, 48.27225929563229, 62.6453967154273 
167.97153511470407, -0.029051086919639486, 22.55205747695986, 127.63443447388703, 48.292268847995565, 62.64517140932824 
167.0458896788675, 0.01888415753334889, 22.552057498184865, 126.93451453484005, 48.31523557408906, 62.64491283265522 
166.12058632357736, 0.07295897905488741, 22.552057281895983, 126.23449195664351, 48.34115649472365, 62.64462103027929 
165.1956644090537, 0.1331568792760457, 22.552056741542152, 125.53435386322398, 48.370028247540354, 62.64429605294906 
164.27116258318918, 0.19945952479232296, 22.552055781143697, 124.834087228852, 48.401847087453774, 62.64393795732252 
163.34711870937235, 0.27184676318816753, 22.552054295440993, 124.13367886167632, 48.436608887141325, 62.64354680600167 
162.4235697957465, 0.3502966405281289, 22.552052170057614, 123.43311538716814, 48.47430913757702, 62.6431226675709 
161.50055192601863, 0.43478542026468797, 22.552049281677775, 122.73238323146566, 48.51494294860804, 62.64266561663831 
160.57810019192817, 0.5252876035095061, 22.55204549823784, 122.03146860460892, 48.558505049572204, 62.64217573388042 
159.6562486274779, 0.6217759506111198, 22.552040679131597, 121.33035748365448, 48.60498978995446, 62.64165310608957 
158.73503014502174, 0.7242215039790543, 22.55203467542901, 120.6290355956598, 48.65439114008018, 62.64109782622453 
157.81447647329762, 0.8325936120912538, 22.552027330108302, 119.92748840052607, 48.70670269184296, 62.64050999346386 
156.89461809748568, 0.9468599546190949, 22.552018478300834, 119.2257010736885, 48.761917659464515, 62.639889713261795 
155.97548420136386, 1.066986568601823, 22.552007947548688, 118.52365848864233, 48.820028880284006, 62.63923709740709 
155.0571026116251, 1.1929378756000375, 22.5519955580744, 117.82134519929237, 48.88102881557411, 62.63855226408378 
154.139499744413, 1.3246767097560017, 22.55198112306266, 117.1187454221141, 48.94490955138074, 62.637835337934824 
153.22270055412307, 1.4621643466870065, 22.5519644489535, 116.41584301811281, 49.01166279938354, 62.63708645012747 
152.30672848451002, 1.6053605331365643, 22.551945335746606, 115.71262147456767, 49.081279897773776, 62.63630573842094 
151.39160542213293, 1.7542235173073617, 22.551923577316366, 115.00906388654685, 49.15375181214626, 62.635493347235744 
150.47735165216125, 1.908710079798833, 22.551898961737248, 114.30515293817885, 49.22906913640166, 62.634649427724995 
149.5639858165579, 2.0687755650721193, 22.55187127161901, 113.60087088366558, 49.30722209365565, 62.633774137847006 
148.65152487464687, 2.2343739133645477, 22.551840284451377, 112.89619952802066, 49.388200537150865, 62.6328676424395 
147.7399840660658, 2.4054576929760114, 22.55180577295768, 112.19112020751743, 49.471993951167555, 62.631930113294736 
146.82937687609635, 2.5819781328498808, 22.551767505457036, 111.48561376982929, 49.55859145192891, 62.630961729236134 
145.91971500335737, 2.7638851553715464, 22.551725246234486, 110.77966055384441, 49.64798178849651, 62.62996267619528 
145.01100832984102, 2.9511274093083606, 22.551678755918772, 110.07324036913717, 49.74015334365135, 62.628933147289885 
144.10326489326226, 3.1436523028158923, 22.551627791867066, 109.366332475076, 49.835094134755714, 62.6278733429022 
143.19649086168928, 3.3414060364363842, 22.5515721085563, 108.65891555954879, 49.93279181459107, 62.62678347075764 
142.2906905104142, 3.5443336360167192, 22.55151145798046, 107.9509677172837, 50.03323367216671, 62.62566374600351 
141.38586620101916, 3.75237898547477, 22.551445590053405, 107.24246642774504, 50.136406633494055, 62.624514391287775 
140.48201836258679, 3.9654848593446776, 22.551374253016625, 106.53338853257995, 50.24229726232093, 62.62333563683743 
139.57914547500113, 4.183592955033342, 22.551297193851436, 105.82371021259371, 50.35089176082038, 62.62212772053623 
138.67724405427825, 4.406643924722683, 22.551214158695025, 105.11340696422765, 50.46217597022797, 62.62089088800212 
137.77630863986445, 4.634577406853946, 22.551124893259896, 104.40245357551507, 50.57613537142167, 62.61962539266322 
136.87633178383538, 4.867332057132852, 22.551029143255967, 103.69082410148748, 50.692755085437824, 62.618331495833274 
135.97730404192578, 5.104845578996648, 22.550926654814994, 102.97849183900348, 50.81201987391701, 62.617009466785206 
135.0792139663186, 5.347054753486269, 22.55081717491661, 102.26542930097136, 50.93391413947283, 62.615659582823625 
134.18204810011875, 5.59389546846971, 22.550700451815487, 101.55160818993426, 51.0584219259768, 62.6142821293552 
133.2857909734359, 5.845302747164737, 22.55057623546896, 100.83699937098703, 51.18552691875202, 62.612877399957526 
132.39042510099856, 6.101210775912099, 22.550444277964722, 100.12157284399088, 51.315212444668525, 62.611445696445166 
131.49593098122205, 6.3615529311524845, 22.550304333947853, 99.40529771505193, 51.44746147213223, 62.60998732893418 
130.60228709665125, 6.626261805563662, 22.550156161046704, 98.68814216722724, 51.582256610959654, 62.6085026159033 
129.7094699157001, 6.895269233316199, 22.549999520297096, 97.97007343042124, 51.719580112130316, 62.60699188425274 
128.8174538956085, 7.1685063144093535, 22.549834176564193, 97.25105775043296, 51.85941386740817, 62.605455469359825 
127.92621148654013, 7.445903438050925, 22.54965989896158, 96.53106035711387, 52.00173940882313, 62.603893715131704 
127.03571313674401, 7.727390305047583, 22.549476461266938, 95.81004543159358, 52.14653790800367, 62.602306974054116 
126.14592729870432, 8.012895949174844, 22.549283642333783, 95.08797607252907, 52.293790175351134, 62.60069560723728 
125.25682043620556, 8.30234875749803, 22.549081226498696, 94.36481426133189, 52.443476659045444, 62.5990599844572 
124.36835703224087, 8.595676489618503, 22.54886900398359, 93.64052082632455, 52.59557744387266, 62.59740048419368 
123.48049959769492, 8.892806295821337, 22.548646771292386, 92.9150554057771, 52.75007224986315, 62.59571749366351 
122.59320868073439, 9.193664734103518, 22.54841433160162, 92.18837640977091, 52.906940430729925, 62.594011408849894 
121.70644287684257, 9.498177786063467, 22.548171495144462, 91.4604409808364, 53.06616097209516, 62.59228263452668 
120.82015883943744, 9.806270871635617, 22.547918079587618, 90.73120495330738, 53.227712489493705, 62.590531584278274 
119.93431129101643, 10.117868862655145, 22.547653910400626, 90.00062281133464, 53.391573226140416, 62.58875868051453 
119.04885303477384, 10.432896095240986, 22.547378821217087, 89.26864764549624, 53.55772105044928, 62.58696435448033 
118.16373496664208, 10.75127638098641, 22.547092654187267, 88.53523110794264, 53.72613345329032, 62.58514904626008 
117.27890608771082, 11.072933016949149, 22.546795260321694, 87.8003233660095, 53.89678754497074, 62.583313204776715 
116.39431351698295, 11.397788794434573, 22.546486499825193, 87.06387305423038, 54.06966005192557, 62.58145728778505 
115.5099025044311, 11.725766006567396, 22.546166242421027, 86.32582722467806, 54.2447273131029, 62.5795817618594 
114.62561644432243, 12.056786454649204, 22.545834367664597, 85.58613129556008, 54.42196527602771, 62.57768710237517 
113.74139688878516, 12.39077145330076, 22.545490765246335, 84.84472899799273, 54.60134949252797, 62.57577379348462 
112.8571835615945, 12.727641834389873, 22.545135335283337, 84.10156232087316, 54.78285511410582, 62.57384232808619 
111.972914372162, 13.067317949746965, 22.54476798859945, 83.35657145376757, 54.966456886935745, 62.571893207787554 
111.08852542971684, 13.409719672672443, 22.544388646993248, 82.60969472772992, 55.15212914647124, 62.56992694286228 
110.20395105767363, 13.75476639824111, 22.543997243493724, 81.86086855396279, 55.33984581164002, 62.56794405219986 
109.31912380818751, 14.10237704241059, 22.54359372260314, 81.110027360229, 55.529580378607626, 62.56594506324899 
108.43397447690214, 14.452470039942273, 22.54317804052694, 80.35710352491911, 55.72130591408765, 62.56393051195413 
107.54843211790426, 14.804963341144388, 22.542750165390142, 79.60202730867755, 55.91499504817638, 62.56190094268509 
106.66242405890252, 15.15977440744868, 22.542310077440142, 78.8447267834863, 56.11061996668812, 62.5598569081597 
105.77587591665717, 15.516820205833193, 22.541857769235417, 78.08512775910262, 56.308152402966854, 62.557798969359176 
104.888711612692, 15.876017202105363, 22.54139324582006, 77.32315370674357, 56.507563629148066, 62.555727695436744 
