# MEX_intpoint_lon [deg], MEX_intpoint_lat [deg], MEX_intpoint_angle [deg], TGO_intpoint_lon [deg], TGO_intpoint_lat [deg], TGO_intpoint_angle [deg] 
-103.68153951580257, 20.358700511012913, 22.150592502649953, -140.71812313950204, 58.791595881816534, 62.53311985838405 
-104.5950243700686, 20.000093545303027, 22.15115725813462, -141.49785457678595, 58.56100677132716, 62.535424949762046 
-105.50683005162077, 19.642436673443378, 22.151712268232476, -142.27418906138286, 58.332010116780864, 62.53772383808528 
-106.41704388803014, 19.285818329098518, 22.152257375522243, -143.04724003384948, 58.10464091466168, 62.54001582769143 
-107.32575200568564, 18.930326297188056, 22.152792434378945, -143.81711717118284, 57.87893356141746, 62.542300230057805 
-108.23303929881511, 18.576047728313597, 22.15331731099351, -144.58392652354232, 57.65492187147217, 62.54457636399434 
-109.13898940001386, 18.223069152568254, 22.153831883378036, -145.3477706454654, 57.432639094188076, 62.54684355582832 
-110.04368465216244, 17.87147649269051, 22.15433604135684, -146.10874872179332, 57.212117929831045, 62.54910113958068 
-110.94720608162397, 17.521355076525975, 22.154829686543415, -146.86695668851817, 56.993390544588436, 62.55134845713388 
-111.84963337261732, 17.172789648763366, 22.15531273230324, -147.62248734875746, 56.77648858468752, 62.55358485839158 
-112.75104484267135, 16.825864381912474, 22.15578510370264, -148.37543048405587, 56.56144318965918, 62.55580970142992 
-113.65151741907087, 16.480662886494624, 22.156246737443677, -149.1258729612084, 56.34828500478936, 62.558022352640236 
-114.55112661621328, 16.13726822041738, 22.15669758178539, -149.8738988347923, 56.13704419279893, 62.56022218686371 
-115.44994651380134, 15.795762897507565, 22.157137596451268, -150.61958944559015, 55.92775044479004, 62.56240858751769 
-116.34804973580344, 15.456228895178254, 22.15756675252339, -151.3630235150783, 55.720432990495475, 62.56458094671355 
-117.24550743012128, 15.118747661207074, 22.157985032323143, -152.10427723615084, 55.51512060786532, 62.5667386653666 
-118.14238924890877, 14.783400119605073, 22.158392429278873, -152.84342436024133, 55.3118416320239, 62.5688811532977 
-119.03876332949483, 14.45026667555659, 22.15878894778062, -153.58053628099992, 55.110623963627795, 62.57100782932702 
-119.93469627586654, 14.119427219412778, 22.159174603022205, -154.3156821146758, 54.911495076654596, 62.57311812135939 
-120.83025314067781, 13.790961129722366, 22.159549420830704, -155.0489287773513, 54.714482025650554, 62.575211466462285 
-121.7254974077514, 13.464947275285368, 22.15991343748393, -155.78034105916595, 54.51961145246353, 62.57728731093559 
-122.62049097505098, 13.141464016216512, 22.160266699515727, -156.50998169566503, 54.32690959248682, 62.57934511037378 
-123.51529413810339, 12.820589204007085, 22.160609263509798, -157.23791143640065, 54.13640228043795, 62.5813843297206 
-124.40996557385756, 12.502400180575211, 22.160941195882046, -157.96418911090888, 53.948114955695345, 62.5834044433162 
-125.30456232497181, 12.186973776296165, 22.161262572651818, -158.6888716921809, 53.762072667214845, 62.58540493493689 
-126.19913978452591, 11.874386307006045, 22.16157347920245, -159.41201435774084, 53.57830007804694, 62.587385297827815 
-127.0937516811604, 11.564713569973359, 22.161874010031358, -160.13367054844005, 53.396821469474574, 62.589345034728275 
-127.98845006464836, 11.258030838835214, 22.1621642684901, -160.85389202507028, 53.217660744790535, 62.59128365789061 
-128.8832852919126, 10.954412857495809, 22.162444366514578, -161.57272892289615, 53.040841432732584, 62.59320068909171 
-129.77830601350234, 10.653933832987212, 22.16271442434606, -162.29022980420174, 52.866386690593664, 62.59509565963854 
-130.67355916055047, 10.356667427293583, 22.162974570243065, -163.00644170894276, 52.69431930702368, 62.59696811036681 
-131.56908993223507, 10.062686748142095, 22.163224940184772, -163.72141020359098, 52.524661704538865, 62.59881759163344 
-132.46494178377387, 9.772064338765414, 22.163465677566208, -164.43517942825542, 52.35743594175367, 62.60064366330324 
-133.3611564149829, 9.484872166642392, 22.163696932885582, -165.1477921421587, 52.19266371534998, 62.602445894729264 
-134.25777375943565, 9.201181611225705, 22.163918863424435, -165.85928976754616, 52.03036636179738, 62.60422386472791 
-135.15483197426124, 8.921063450666658, 22.16413163292067, -166.5697124321006, 51.87056485883799, 62.6059771615482 
-136.05236743062403, 8.644587847549746, 22.164335411235243, -167.27909900993166, 51.71327982674861, 62.60770538283585 
-136.9504147049297, 8.371824333651324, 22.164530374012703, -167.9874871612079, 51.5585315293926, 62.60940813559236 
-137.8490065708056, 8.102841793738795, 22.16471670233623, -168.69491337049433, 51.40633987507318, 62.611085036129055 
-138.74817399190613, 7.837708448428614, 22.164894582377464, -169.4014129838576, 51.25672441719975, 62.61273571001662 
-139.64794611559532, 7.576491836123991, 22.165064205041734, -170.10702024479593, 51.10970435477807, 62.614359792030044 
-140.54835026756197, 7.319258794054669, 22.16522576560905, -170.8117683290511, 50.96529853273493, 62.61595692608943 
-141.44941194742324, 7.066075438443737, 22.16537946337134, -171.5156893783546, 50.823525442087416, 62.617526765196814 
-142.3511548253746, 6.8170071438285555, 22.1655255012666, -172.21881453315987, 50.68440321996663, 62.619068971369174 
-143.25360073994602, 6.572118521564853, 22.165664085510095, -172.9211739644087, 50.547949649505405, 62.62058321556785 
-144.15676969692333, 6.331473397545479, 22.16579542522346, -173.6227969043793, 50.414182159598894, 62.6220691776247 
-145.06067986949645, 6.095134789167465, 22.165919732061923, -174.32371167665963, 50.28311782454733, 62.62352654616528 
-145.9653475996943, 5.863164881583217, 22.16603721984032, -175.02394572528928, 50.154773363588845, 62.624955018528944 
-146.87078740116866, 5.635625003273762, 22.16614810415828, -175.7235256431105, 50.02916514033117, 62.62635430068666 
-147.7770119633857, 5.4125756009845185, 22.166252602025146, -176.42247719936722, 49.906309162089826, 62.62772410715601 
-148.68403215728696, 5.194076214065693, 22.16635093148511, -177.12082536658912, 49.78622107914058, 62.62906416091455 
-149.59185704247693, 4.980185448262094, 22.166443311243025, -177.8185943467967, 49.66891618389371, 62.63037419331097 
-150.5004938759958, 4.770960948998737, 22.16652996029143, -178.51580759706113, 49.554409409997135, 62.631653943974605 
-151.40994812273212, 4.56645937421108, 22.166611097539306, -179.21248785445113, 49.442715331375496, 62.632903160723686 
-152.32022346753007, 4.366736366770324, 22.166686941442933, -179.9086571603985, 49.33384816121179, 62.634121599472216 
-153.2313218290415, 4.171846526556412, 22.166757709639484, 179.39566311548862, 49.22782175087838, 62.635309024136134 
-154.14324337537172, 3.981843382232967, 22.166823618583766, 178.70045225213588, 49.12464958882323, 62.63646520653837 
-155.0559865415646, 3.796779362780237, 22.166884883188548, 178.00569015420945, 49.024344799417946, 62.637589926313936 
-155.96954804896822, 3.6167057688436315, 22.16694171646906, 177.31135732979354, 48.92692014177318, 62.638682970814436 
-156.88392292651957, 3.441672743957098, 22.16699432919206, 176.61743486851327, 48.83238800852738, 62.63974413501237 
-157.79910453398242, 3.2717292457016964, 22.16704292952991, 175.9239044200801, 48.740760424614166, 62.640773221406185 
-158.71508458716733, 3.106923016861201, 22.16708772272015, 175.2307481732366, 48.652049046013914, 62.641770039925234 
-159.6318531851595, 2.9473005566374932, 22.16712891073115, 174.5379488350789, 48.56626515849446, 62.64273440783556 
-160.54939883957385, 2.7929070919894343, 22.167166691933954, 173.84548961073656, 48.48341967634612, 62.64366614964668 
-161.46770850585142, 2.6437865491597776, 22.167201260781113, 173.1533541833894, 48.4035231411157, 62.64456509701914 
-162.38676761660722, 2.4999815254550786, 22.167232807492702, 172.46152669460318, 48.32658572034425, 62.64543108867352 
-163.30656011703198, 2.3615332613440714, 22.167261517750035, 171.7699917249651, 48.25261720631276, 62.646263970300865 
-164.2270685023459, 2.2284816129401084, 22.16728757239746, 171.0787342750026, 48.18162701480046, 62.647063594474865 
-165.14827385729475, 2.1008650249333116, 22.16731114715255, 170.38773974636806, 48.11362418385953, 62.64782982056564 
-166.07015589767394, 1.9787205040377924, 22.167332412325287, 169.69699392327453, 48.0486173726103, 62.64856251465593 
-166.9926930138593, 1.862083593018912, 22.167351532546355, 169.00648295416613, 47.98661486006089, 62.64926154945919 
-167.91586231631598, 1.750988345364876, 22.167368666505045, 168.31619333360922, 47.92762454395446, 62.64992680424023 
-168.8396396830515, 1.6454673006661327, 22.167383966697162, 167.62611188439027, 47.87165393964813, 62.65055816473847 
-169.76399980897205, 1.5455514607648904, 22.167397579183106, 166.93622573980684, 47.81871017902639, 62.6511555230938 
-170.688916257094, 1.451270266735824, 22.167409643356585, 166.24652232613872, 47.76880000945239, 62.651718777775436 
-171.61436151155678, 1.3626515767573628, 22.167420291724298, 165.55698934528704, 47.721929792759944, 62.652247833513705 
-172.5403070323769, 1.2797216449314248, 22.16742964969664, 164.86761475756933, 47.678105504289235, 62.65274260123511 
-173.46672331187548, 1.2025051011071684, 22.167437835390068, 164.17838676465888, 47.63733273196864, 62.65320299800071 
-174.39357993270744, 1.1310249317624552, 22.167444959441006, 163.4892937926576, 47.599616675445475, 62.65362894694783 
-175.3208456274119, 1.0653024619939957, 22.167451124831906, 162.80032447529138, 47.564962145267536, 62.65402037723541 
-176.24848833940044, 1.005357338664787, 22.167456426729423, 162.11146763721788, 47.53337356211818, 62.65437722399308 
-177.17647528529204, 0.9512075147545206, 22.167460952334974, 161.4227122774367, 47.504854956106406, 62.6546994282739 
-178.10477301849974, 0.9028692349556019, 22.167464780748013, 160.7340475527918, 47.47940996611406, 62.65498693701107 
-179.03334749396814, 0.860357022554324, 22.167467982842084, 160.04546276155733, 47.457041839201985, 62.655239702978484 
-179.96216413395766, 0.8236836676334414, 22.16747062115377, 159.35694732709732, 47.437753430076064, 62.65545768475557 
179.10881210523442, 0.7928602166286812, 22.16747274978488, 158.66849078159032, 47.4215472006153, 62.655640846695924 
178.17961666572808, 0.7678959632683756, 22.167474414317773, 157.98008274981018, 47.40842521946239, 62.65578915890043 
177.25028531980664, 0.7487984409214336, 22.16747565174409, 157.29171293295425, 47.398389161678296, 62.655902597194306 
176.32085410107328, 0.7355734163750883, 22.16747649040696, 156.6033710925109, 47.39144030846152, 62.65598114310873 
175.39135923513965, 0.7282248850598996, 22.167476949956686, 155.9150470341577, 47.387579546932635, 62.65602478386667 
174.4618370699696, 0.72675506773539, 22.167477041320073, 155.22673059168167, 47.38680736998494, 62.65603351237288 
173.53232400600308, 0.731164408645762, 22.16747676668331, 154.53841161091447, 47.38912387620123, 62.65600732720867 
172.60285642618535, 0.7414515751507328, 22.167476119488644, 153.85007993367293, 47.39452876983724, 62.655946232630534 
171.67347062602795, 0.7576134588326733, 22.167475084444526, 153.16172538169826, 47.40302136087147, 62.65585023857367 
170.7442027438266, 0.7796451780768358, 22.167473637549538, 152.47333774058455, 47.414600565121575, 62.65571936065958 
169.8150886911621, 0.8075400821174588, 22.16747174612993, 151.78490674368908, 47.4292649044268, 62.655553620207904 
168.88616408380753, 0.8412897565383247, 22.16746936889062, 151.09642205601637, 47.44701250689616, 62.65535304425305 
167.9574641731645, 0.8808840302123292, 22.167466455979778, 150.40787325806673, 47.467841107221616, 62.65511766556467 
167.02902377834852, 0.9263109836605979, 22.16746294906681, 149.71924982964222, 47.49174804705557, 62.65484752267264 
166.10087721904125, 0.9775569588078308, 22.167458781433574, 149.03054113360022, 47.51873027545181, 62.65454265989611 
165.17305824922397, 1.0346065701065978, 22.1674538780789, 148.34173639954673, 47.54878434936845, 62.65420312737686 
164.2455999919034, 1.0974427169997978, 22.167448155836052, 147.65282470746024, 47.581906434232096, 62.6538289811166 
163.3185348749366, 1.1660465976867624, 22.16744152350309, 146.96379497123715, 47.61809230456139, 62.653420283018335 
162.3918945680581, 1.240397724155219, 22.16743388198603, 146.27463592214914, 47.65733734464851, 62.65297710093162 
161.46570992120658, 1.3204739384378816, 22.167425124454418, 145.58533609220342, 47.69963654929689, 62.65249950870172 
160.54001090424475, 1.4062514300495441, 22.167415136509316, 144.89588379739556, 47.744984524613166, 62.65198758622241 
159.61482654815904, 1.497704754557508, 22.167403796363306, 144.20626712084498, 47.79337548885127, 62.651441419492386 
158.690184887822, 1.5948068532355453, 22.167390975032404, 143.5164738958023, 47.84480327330648, 62.650861100675364 
157.76611290639264, 1.6975290737489557, 22.16737653653955, 142.82649168851813, 47.89926132325699, 62.65024672816314 
156.84263648142507, 1.8058411918161772, 22.16736033812946, 142.13630778096143, 47.95674269895038, 62.64959840664255 
155.9197803327491, 1.919711433790102, 22.167342230494434, 141.44590915337625, 48.01724007663231, 62.64891624716485 
154.99756797217998, 2.039106500100519, 22.167322058011056, 140.75528246666445, 48.080745749614564, 62.64820036721845 
154.0760216551083, 2.16399158949735, 22.16729965898718, 140.06441404458167, 48.14725162937932, 62.64745089080445 
153.1551623340141, 2.2943304240330393, 22.167274865919133, 139.37328985573345, 48.21674924671647, 62.64666794851471 
152.23500961394328, 2.4300852747211112, 22.167247505758564, 138.68189549535808, 48.28922975289055, 62.645851677612434 
151.31558170997712, 2.5712169878070084, 22.167217400188843, 137.99021616688134, 48.364683920833926, 62.64500222211503 
150.39689540671975, 2.7176850115865685, 22.167184365910394, 137.2982366632287, 48.443102146362186, 62.644119732879325 
149.4789660198219, 2.869447423706897, 22.167148214934727, 136.60594134787905, 48.52447444940821, 62.64320436768836 
148.56180735955235, 3.026460958884208, 22.167108754886737, 135.91331413564413, 48.608790475270695, 62.64225629134031 
147.64543169642323, 3.1886810369728322, 22.167065789314936, 135.22033847315612, 48.69603949587296, 62.641275675738676 
146.7298497288688, 3.356061791319989, 22.167019118009023, 134.52699731904636, 48.78621041102759, 62.64026269998407 
145.81507055297084, 3.5285560973409984, 22.166968537324635, 133.83327312379612, 48.87929174970264, 62.63921755046704 
144.90110163421969, 3.7061156012501364, 22.166913840514614, 133.13914780924014, 48.975271671284254, 62.638140420961875 
143.98794878129289, 3.888690748883086, 22.166854818066508, 132.44460274770313, 49.0741379668312, 62.63703151272125 
143.07561612182988, 4.076230814547598, 22.16679125804576, 131.74961874074742, 49.175878060316066, 62.63589103457114 
142.1641060801745, 4.268683929840183, 22.1667229464442, 131.05417599751001, 49.280479009847824, 62.63471920300631 
141.25341935705438, 4.465997112367635, 22.16664966753333, 130.35825411260618, 49.38792750887055, 62.63351624228592 
140.34355491116054, 4.668116294313586, 22.166571204221974, 129.66183204357404, 49.49820988733231, 62.6322823845286 
139.43450994258754, 4.87498635079165, 22.16648733841778, 128.96488808783698, 49.61131211281886, 62.63101786980762 
138.52627987809026, 5.086551127928405, 22.166397851392137, 128.26739985915526, 49.72721979164578, 62.62972294624514 
137.6188583581106, 5.302753470620869, 22.166302524148012, 127.5693442635402, 49.8459181699029, 62.628397870105815 
136.71223722552406, 5.523535249915203, 22.166201137790175, 126.87069747460197, 49.967392134444886, 62.62704290588924 
135.8064065160538, 5.748837389955001, 22.16609347389738, 126.17143490829994, 50.09162621382085, 62.625658326421146 
134.90135445029765, 5.978599894449519, 22.165979314896052, 125.47153119706458, 50.21860457913668, 62.6242444129429 
133.997067427311, 6.212761872614281, 22.165858444434807, 124.77096016325712, 50.348311044842475, 62.62280145519954 
133.09353001968807, 6.451261564538403, 22.165730647759556, 124.06969479193265, 50.48072906943821, 62.62132975152544 
132.19072497008162, 6.694036365935295, 22.16559571208842, 123.3677072028697, 50.61584175608982, 62.619829608928015 
131.28863318910143, 6.941022852235271, 22.16545342698632, 122.664968621829, 50.7536318531479, 62.618301343168795 
130.38723375452986, 7.192156801981102, 22.165303584738282, 121.9614493510008, 50.89408175456093, 62.616745278841634 
129.48650391179527, 7.4473732194894025, 22.165145980721466, 121.25711873859986, 51.03717350017477, 62.61516174944846 
128.5864190756402, 7.706606356743315, 22.164980413774966, 120.5519451475637, 51.182888775909554, 62.61355109747116 
127.68695283292627, 7.969789734483735, 22.164806686567243, 119.84589592330948, 51.33120891380521, 62.61191367444046 
126.7880769465143, 8.236856162468994, 22.164624605960537, 119.13893736050082, 51.48211489192608, 62.61024984100118 
125.88976136016238, 8.5077377588748, 22.164433983371733, 118.43103466877537, 51.63558733411527, 62.60855996697337 
124.99197420438392, 8.782365968808433, 22.16423463512935, 117.7221519373807, 51.79160650958848, 62.60684443140937 
124.09468180321026, 9.060671581913661, 22.16402638282606, 117.01225209866368, 51.95015233235716, 62.60510362264682 
123.19784868180443, 9.342584749044489, 22.163809053666334, 116.30129689035698, 52.11120436047002, 62.603337938356596 
122.30143757487392, 9.628034997988486, 22.163582480808667, 115.58924681660159, 52.274741795061956, 62.60154778558652 
121.40540943583377, 9.916951248222068, 22.163346503702076, 114.87606110764467, 52.440743479198474, 62.59973358079981 
120.50972344667306, 10.209261824682487, 22.163100968416245, 114.16169767814569, 52.60918789650388, 62.597895749908176 
119.61433702848144, 10.504894470543013, 22.162845727965006, 113.44611308402376, 52.78005316956026, 62.59603472829989 
118.71920585259484, 10.803776358979999, 22.162580642622665, 112.72926247777401, 52.9533170580645, 62.59415096086205 
117.82428385232292, 11.105834103922245, 22.162305580232776, 112.01109956217856, 53.128956956729546, 62.59224490199703 
116.92952323522528, 11.410993769774976, 22.162020416508877, 111.29157654233408, 53.30694989291552, 62.59031701563294 
116.034874495905, 11.719180880112825, 22.161725035326956, 110.57064407591405, 53.4872725239762, 62.588367775228114 
115.14028642929458, 12.030320425337571, 22.16141932900895, 109.84825122158054, 53.669901134305, 62.586397663768956 
114.24570614441119, 12.344336869298623, 22.161103198597267, 109.12434538545632, 53.85481163206441, 62.584407173761626 
113.35107907856393, 12.66115415487545, 22.160776554119664, 108.39887226556422, 54.041979545581995, 62.58239680721657 
112.45634901199931, 12.980695708523452, 22.160439314844186, 107.67177579413607, 54.23138001939507, 62.58036707562675 
111.56145808297627, 13.302884443785668, 22.160091409523954, 106.94299807769006, 54.4229878099256, 62.578318499938376 
110.66634680326614, 13.627642763775118, 22.159732776631255, 106.21247933476981, 54.61677728076598, 62.57625161051505 
109.770954074079, 13.95489256263352, 22.159363364580823, 105.4801578312349, 54.81272239755495, 62.574166947093914 
108.87521720242165, 14.28455522597408, 22.158983131941753, 104.74596981298689, 55.01079672242281, 62.572065058735134 
107.97907191789845, 14.616551630317538, 22.158592047638038, 104.00984943601004, 55.210973407982976, 62.56994650376329 
107.08245238997145, 14.95080214153205, 22.158190091137122, 103.27172869360153, 55.41322519084671, 62.567811849701414 
106.18529124570163, 15.287226612289242, 22.157777252626587, 102.53153734065934, 55.61752438463602, 62.56566167319724 
105.28751958799891, 15.62574437855016, 22.157353533178256, 101.78920281489194, 55.82384287246899, 62.563496559941484 
104.38906701441414, 15.96627425509646, 22.156918944899914, 101.04465015480673, 56.03215209888988, 62.56131710457822 
