# MEX_intpoint_lon [deg], MEX_intpoint_lat [deg], MEX_intpoint_angle [deg], TGO_intpoint_lon [deg], TGO_intpoint_lat [deg], TGO_intpoint_angle [deg] 
-104.34696490178105, 20.5151695469448, 22.541377445820928, -162.56134711966746, 59.14384522159739, 62.5290272697127 
-105.24870590895046, 20.135999886791467, 22.54198977423192, -163.36042074713353, 58.9235049296927, 62.53121489542467 
-106.14874359990415, 19.75789248863748, 22.542591027745104, -164.15593041077716, 58.70464165124907, 62.533396936714226 
-107.04717385998217, 19.380938190274495, 22.543181036462176, -164.94798962046966, 58.487290885407326, 62.53557273276667 
-107.94409111987692, 19.00522715597293, 22.54375964389356, -165.73670831209134, 58.27148750194352, 62.5377416291751 
-108.83958833072094, 18.630848895716944, 22.54432670697796, -166.52219296839007, 58.057265759641695, 62.53990297812505 
-109.73375694050927, 18.257892283605802, 22.544882096085697, -167.30454673556076, 57.84465932366638, 62.54205613857147 
-110.62668687172109, 17.886445575386258, 22.545425695006045, -168.0838695356708, 57.6337012819809, 62.544200476408385 
-111.51846650001656, 17.516596425082373, 22.54595740091826, -168.86025817505882, 57.424424160856695, 62.54633536463104 
-112.4091826338919, 17.148431900691772, 22.546477124346733, -169.63380644883458, 57.216859939515864, 62.54846018349042 
-113.29892049518725, 16.782038498918766, 22.546984789100275, -170.40460524160696, 57.01104006394716, 62.550574320640315 
-114.1877637003482, 16.417502158917266, 22.547480332195526, -171.1727426245672, 56.80699545993486, 62.552677171276954 
-115.07579424235261, 16.054908275017926, 22.547963703764776, -171.93830394905297, 56.60475654533644, 62.55476813827114 
-115.9630924732212, 15.694341708415413, 22.54843486694829, -172.70137193671638, 56.404353241644806, 62.55684663229272 
-116.84973708703895, 15.335886797793988, 22.548893797771335, -173.4620267664187, 56.20581498486834, 62.55891207192799 
-117.73580510342285, 14.979627368870373, 22.549340485006056, -174.2203461579708, 56.00917073576059, 62.5609638837894 
-118.62137185137787, 14.62564674283517, 22.549774930018494, -174.97640545283647, 55.814448989430296, 62.56300150261811 
-119.50651095349214, 14.274027743674816, 22.55019714660092, -175.7302776919132, 55.62167778436044, 62.565024371379195 
-120.39129431042755, 13.924852704358235, 22.550607160789742, -176.48203369050137, 55.43088471086447, 62.567031941349754 
-121.27579208567145, 13.578203471873108, 22.551005010669215, -177.2317421105716, 55.24209691900558, 62.569023672199705 
-122.1600726905195, 13.23416141109869, 22.551390746161378, -177.97946953043433, 55.055341126004805, 62.57099903206567 
-123.04420276926855, 12.892807407502954, 22.551764428802297, -178.72528051191554, 54.870643623161484, 62.57295749761792 
-123.92824718460297, 12.55422186865383, 22.55212613150511, -179.46923766513703, 54.68803028230965, 62.57489855412035 
-124.81226900316591, 12.218484724535154, 22.55247593831015, 179.78859828900187, 54.50752656183167, 62.57682169548375 
-125.69632948131179, 11.88567542665988, 22.552813944122423, 179.04816845854813, 54.329157512250674, 62.57872642431242 
-126.5804880510425, 11.555872945974373, 22.553140254436933, 178.3094157223346, 54.15294778142159, 62.58061225194436 
-127.46480230613645, 11.229155769548969, 22.553454985052145, 177.57228467384726, 53.97892161933983, 62.58247869848482 
-128.3493279884835, 10.905601896051959, 22.553758261771925, 176.83672156703773, 53.807102882586314, 62.584325292833746 
-129.23411897464626, 10.58528883000525, 22.554050220096546, 176.1026742639979, 53.63751503842614, 62.58615157270719 
-130.11922726267093, 10.268293574822076, 22.554331004902956, 175.37009218442026, 53.47018116857783, 62.58795708465236 
-131.0047029591791, 9.954692624628418, 22.554600770114924, 174.63892625676752, 53.30512397266926, 62.58974138405721 
-131.89059426677295, 9.644561954872, 22.554859678363346, 173.90912887107908, 53.142365771395696, 62.59150403515408 
-132.7769474717946, 9.337977011724012, 22.55510790063737, 173.18065383334468, 52.98192850939482, 62.593244611017965 
-133.66380693248234, 9.035012700281218, 22.555345615926544, 172.45345632137753, 52.823833757852896, 62.59496269355926 
-134.5512150675713, 8.735743371577522, 22.55557301085471, 171.72749284212276, 52.66810271685572, 62.59665787351144 
-135.4392123453909, 8.440242808416416, 22.555790279306006, 171.00272119033806, 52.51475621749762, 62.59832975041359 
-136.32783727351452, 8.14858421003763, 22.555997622043446, 170.2791004085875, 52.36381472376073, 62.59997793258821 
-137.21712638901974, 7.860840175633687, 22.556195246320733, 169.5565907484904, 52.2152983341772, 62.60160203711425 
-138.10711424942266, 7.577082686734051, 22.556383365487587, 168.83515363317014, 52.06922678328551, 62.603201689795654 
-138.9978334243508, 7.297383088476802, 22.5565621985894, 168.11475162084986, 51.92561944289226, 62.604776525125736 
-139.88931448802342, 7.021812069790574, 22.556731969961447, 167.3953483695437, 51.784495323150445, 62.60632618624724 
-140.7815860126095, 6.750439642511149, 22.556892908818433, 166.676908602795, 51.645873073464166, 62.60785032490877 
-141.67467456253647, 6.4833351194602535, 22.557045248839817, 165.95939807641395, 51.50977098323027, 62.609348601417274 
-142.5686046898244, 6.220567091516142, 22.557189227751376, 165.24278354616982, 51.376206982426325, 62.61082068458709 
-143.46339893052186, 5.962203403708293, 22.55732508690378, 164.52703273639443, 51.24519864205421, 62.61226625168577 
-144.359077802321, 5.708311130370962, 22.557453070848496, 163.81211430945476, 51.116763174448565, 62.613684988376704 
-145.25565980343038, 5.458956549393188, 22.55757342691174, 163.09799783605547, 50.99091743345847, 62.61507658865881 
-146.15316141278393, 5.214205115605154, 22.557686404767015, 162.3846537663326, 50.86767791451104, 62.61644075480383 
-147.05159709166568, 4.974121433343535, 22.557792256006678, 161.67205340170148, 50.74706075456479, 62.617777197290685 
-147.95097928682827, 4.738769228241292, 22.557891233713303, 160.96016886742433, 50.62908173196078, 62.619085634737985 
-148.85131843518388, 4.508211318289546, 22.557983592031224, 160.24897308586273, 50.51375626617889, 62.6203657938342 
-149.75262297014402, 4.282509584222205, 22.558069585738917, 159.53843975038353, 50.401099417506856, 62.621617409266136 
-150.65489932968427, 4.061724939276183, 22.55814946982278, 158.82854329988626, 50.291125886628755, 62.622840223645746 
-151.55815196620668, 3.8459172983828447, 22.55822349905283, 158.11925889392276, 50.183850014140084, 62.62403398743544 
-152.46238335827195, 3.635145546848486, 22.558291927560916, 157.4105623883801, 50.07928577999583, 62.625198458872354 
-153.3675940242692, 3.4294675085842816, 22.558355008421973, 156.7024303116994, 49.977446802898, 62.62633340389126 
-154.27378253808874, 3.228939913948164, 22.558412993238942, 155.9948398416047, 49.878346339628855, 62.627438596047185 
-155.18094554685953, 3.033618367263422, 22.55846613173178, 155.28776878231554, 49.78199728433561, 62.62851381643686 
-156.08907779080891, 2.8435573140808343, 22.558514671331185, 154.5811955422207, 49.68841216777256, 62.629558853620345 
-156.9981721252974, 2.6588100082530577, 22.558558856777612, 153.875099111988, 49.59760315650612, 62.630573503541825 
-157.90821954507697, 2.4794284788917573, 22.558598929726013, 153.16945904308972, 49.509582052088085, 62.63155756945111 
-158.81920921081567, 2.3054634972796473, 22.55863512835685, 152.464255426721, 49.42436029020257, 62.63251086182475 
-159.73112847792538, 2.1369645438109894, 22.558667686993957, 151.75946887309144, 49.341948939791195, 62.633433198287825 
-160.64396292772466, 1.9739797750354147, 22.558696835729663, 151.05508049106987, 49.26235870216176, 62.63432440353627 
-161.55769640096054, 1.8165559908809876, 22.558722800057765, 150.35107186816384, 49.18559991008487, 62.63518430926004 
-162.47231103370754, 1.664738602133263, 22.558745800514764, 149.64742505081546, 49.111682526882944, 62.63601275406695 
-163.3877872956553, 1.5185715982477137, 22.558766052329872, 148.94412252499635, 49.04061614551615, 62.636809583408116 
-164.30410403078804, 1.378097515573344, 22.558783765084236, 148.24114719708479, 48.97240998766903, 62.637574649504124 
-165.22123850045185, 1.2433574060654333, 22.558799142379854, 147.53848237500986, 48.907072902842195, 62.638307811273265 
-166.13916642879866, 1.1143908065652186, 22.558812381518617, 146.83611174964582, 48.84461336745264, 62.639008934260936 
-167.05786205058692, 0.9912357087239766, 22.558823673191867, 146.13401937644355, 48.78503948394639, 62.63967789057105 
-167.97729816131164, 0.8739285296483746, 22.558833201180914, 145.4321896572834, 48.72835897992703, 62.64031455879942 
-168.89744616962756, 0.7625040833430147, 22.55884114206894, 144.73060732253686, 48.67457920730328, 62.640918823969216 
-169.8182761520221, 0.656995553024895, 22.55884766496461, 144.02925741332297, 48.62370714145902, 62.64149057746854 
-170.73975690968527, 0.5574344643830565, 22.55885293123775, 143.3281252639476, 48.57574938044859, 62.64202971699065 
-171.66185602751656, 0.4638506598550135, 22.558857094267545, 142.62719648451275, 48.530712144220196, 62.642536146476424 
-172.5845399352001, 0.3762722739894343, 22.55886029920347, 141.9264569436843, 48.48860127387032, 62.64300977605973 
-173.50777397027196, 0.29472570996224773, 22.55886268273937, 141.22589275160672, 48.449422230931425, 62.64345052201531 
-174.4315224430948, 0.21923561731093116, 22.558864372900867, 140.52549024295374, 48.41318009669546, 62.64385830670965 
-175.35574870364863, 0.149824870948664, 22.55886548884653, 139.82523596010404, 48.37987957157542, 62.644233058554995 
-176.28041521003865, 0.0865145515171146, 22.55886614068299, 139.1251166364321, 48.34952497450695, 62.644574711966136 
-177.20548359861345, 0.02932392713317705, 22.558866429294184, 138.4251191797034, 48.322120242391875, 62.644883207320554 
-178.13091475558164, -0.021729563418500113, 22.55886644618508, 137.72523065556467, 48.297668929585555, 62.64515849092192 
-179.05666889000761, -0.06663032599935458, 22.55886627334004, 137.02543827111938, 48.27617420742944, 62.6454005149667 
-179.982705608062, -0.1053646248930035, 22.55886598309597, 136.3257293585793, 48.25763886383061, 62.64560923751426 
179.09101601160322, -0.13792059500409398, 22.558865638030426, 135.62609135898253, 48.24206530288913, 62.64578462246061 
178.16453734148965, -0.16428825244435719, 22.55886529086497, 134.92651180596974, 48.229455544574776, 62.64592663951544 
177.23790012803659, -0.18445950347524528, 22.558864984383703, 134.22697830960888, 48.21981122445379, 62.64603526418283 
176.3111464136963, -0.1984281517809841, 22.55886475136715, 133.52747854026074, 48.2131335934668, 62.64611047774568 
175.38431845844727, -0.20618990405084414, 22.558864614541708, 132.82800021247547, 48.209423517758154, 62.64615226725363 
174.45745866089203, -0.2077423738541822, 22.558864586544498, 132.12853106891293, 48.2086814785576, 62.6461606255147 
173.5306094790909, -0.20308508379695242, 22.55886466990394, 131.4290588642774, 48.21090757211441, 62.64613555109077 
172.60381335128187, -0.19221946595334996, 22.55886485703581, 130.7295713492583, 48.2161015096841, 62.646077048296526 
171.67711261663817, -0.1751488605712426, 22.5588651302549, 130.03005625446968, 48.22426261756812, 62.64598512720232 
170.75054943621546, -0.15187851305529268, 22.558865461802416, 129.33050127437818, 48.2353898372059, 62.64585980364063 
169.82416571423877, -0.1224155692365601, 22.55886581388875, 128.63089405121283, 48.24948172531946, 62.64570109921622 
168.89800301987816, -0.08676906894248433, 22.55886613875185, 127.93122215884716, 48.2665364541098, 62.64550904132001 
167.97210250966057, -0.04494993788609493, 22.558866378731, 127.23147308664522, 48.28655181150468, 62.64528366314655 
167.0465048506617, 0.0030290221019120427, 22.55886646635595, 126.5316342232634, 48.30952520145703, 62.645025003715006 
166.12125014461867, 0.05715314446975299, 22.558866324451127, 125.83169284039843, 48.33545364429301, 62.644733107894005 
165.1963778531009, 0.1174059109367102, 22.558865866255104, 125.13163607647357, 48.36433377710862, 62.64440802642952 
164.27192672387088, 0.18376896604336412, 22.55886499555478, 124.4314509202531, 48.39616185421402, 62.64404981597662 
163.34793471856293, 0.25622213321795173, 22.55886360683445, 123.73112419437639, 48.43093374762361, 62.64365853913432 
162.42443894180107, 0.33474343231302384, 22.558861585439267, 123.03064253880194, 48.46864494759086, 62.64323426448397 
161.50147557187253, 0.4193090985623537, 22.558858807753136, 122.32999239415153, 48.50929056318593, 62.64277706663064 
160.5790797930656, 0.5098936029045936, 22.55885514139062, 121.6291599849449, 48.552865322914364, 62.642287026247736 
159.65728572977477, 0.6064696736166039, 22.558850445402644, 120.92813130271409, 48.599363575374866, 62.64176423012458 
158.73612638246908, 0.7090083191961847, 22.55884457049581, 120.22689208898765, 48.6487792899539, 62.64120877121724 
157.81563356561057, 0.8174788524308894, 22.55883735926492, 119.52542781813314, 48.70110605755499, 62.640620748701544 
156.89583784760435, 0.9318489155870551, 22.55882864643846, 118.82372368004725, 48.756337091360145, 62.6400002680295 
155.9767684928521, 1.0520845066505586, 22.558818259136707, 118.12176456268143, 48.81446522762081, 62.639347440987834 
155.05845340597355, 1.1781500065488448, 22.558806017142132, 117.41953503439143, 48.87548292647562, 62.63866238575912 
154.14091907825252, 1.3100082072816708, 22.558791733181664, 116.71701932609788, 48.93938227279195, 62.63794522698527 
153.22419053635525, 1.4476203408865727, 22.558775213220567, 116.01420131324528, 49.00615497702829, 62.63719609583322 
152.30829129336098, 1.59094610916372, 22.558756256767428, 115.31106449754583, 49.075792376114045, 62.63641513006239 
151.39324330213694, 1.7399437140836767, 22.55873465718989, 114.60759198849419, 49.14828543434355, 62.63560247409443 
150.47906691108054, 1.8945698888008973, 22.558710202040796, 113.90376648463864, 49.223624744280514, 62.63475827908443 
149.5657808222452, 2.0547799291952855, 22.55868267339409, 113.19957025459365, 49.30180052766933, 62.63388270299363 
148.6534020518565, 2.2205277258639464, 22.55865184819033, 112.49498511777794, 49.382802636349325, 62.632975910663646 
147.74194589322022, 2.3917657964851022, 22.558617498591065, 111.78999242486208, 49.466620553167786, 62.63203807389211 
146.8314258820134, 2.5684453184766873, 22.558579392341834, 111.08457303790838, 49.55324339288771, 62.63106937150871 
145.92185376394482, 2.7505161618724747, 22.558537293143168, 110.37870731018519, 49.64265990308577, 62.63006998945297 
145.0132394647632, 2.9379269223393196, 22.558490961029158, 109.67237506563761, 49.734858465035884, 62.62904012085188 
144.10559106258523, 3.1306249542601723, 22.558440152753068, 108.96555557799502, 49.82982709457384, 62.62797996609858 
143.19891476250933, 3.3285564038086033, 22.558384622179542, 108.2582275494955, 49.9275534429378, 62.626889732931076 
142.29321487347454, 3.5316662419419913, 22.55832412068279, 107.55036908920613, 50.02802479757981, 62.62576963651114 
141.38849378731967, 3.7398982972419215, 22.55825839755026, 106.84195769091785, 50.13122808294296, 62.62461989950311 
140.48475195999183, 3.9531952885323447, 22.558187200391394, 106.1329702105912, 50.23714986119858, 62.62344075215226 
139.5819878948485, 4.171498857207499, 22.55811027555066, 105.42338284333056, 50.34577633293809, 62.622232432363006 
138.68019812799443, 4.394749599204031, 22.558027368524566, 104.71317109986083, 50.45709333781329, 62.620995185776096 
137.77937721558868, 4.6228870965534155, 22.55793822438204, 104.00230978248189, 50.57108635511948, 62.61972926584484 
136.8795177230566, 4.855849948453371, 22.557842588187444, 103.29077296047328, 50.68774050431455, 62.61843493391066 
135.98061021613478, 5.09357580179918, 22.55774020542602, 102.57853394492145, 50.80704054546811, 62.617112459276846 
135.08264325367847, 5.336001381117987, 22.55763082243078, 101.86556526294012, 50.92897087963362, 62.615762119281015 
134.18560338215556, 5.583062517852062, 22.55751418681068, 101.15183863125357, 51.05351554913656, 62.61438419936584 
133.28947513175183, 5.83469417893906, 22.55739004787921, 100.43732492911069, 51.18065823777176, 62.61297899314766 
132.39424101400863, 6.090830494640344, 22.557258157083012, 99.7219941704971, 51.310382270901954, 62.61154680248311 
131.49988152091643, 6.351404785570553, 22.55711826842988, 99.00581547561053, 51.44267061545042, 62.61008793753335 
130.60637512538352, 6.616349588884643, 22.55697013891559, 98.28875704156349, 51.577505879779345, 62.60860271682556 
129.71369828300197, 6.885596683580907, 22.55681352894908, 97.5707861122758, 51.71487031344579, 62.60709146731176 
128.8218254350318, 7.1590771148814145, 22.556648202775207, 96.85186894751773, 51.85474580682681, 62.60555452442479 
127.93072901252573, 7.436721217653511, 22.556473928894828, 96.13197079106311, 51.99711389060481, 62.60399223213071 
127.04037944151708, 7.718458638839029, 22.55629048048135, 95.41105583790988, 52.141955735103906, 62.60240494297813 
126.15074514919566, 8.004218358860173, 22.55609763579342, 94.6890872005237, 52.28925214946799, 62.6007930181438 
125.26179257099764, 8.29392871197345, 22.555895178583086, 93.96602687405873, 52.43898358067054, 62.599156827474374 
124.37348615853749, 8.587517405545885, 22.555682898498937, 93.2418357005073, 52.59113011234586, 62.59749674952418 
123.48578838831297, 8.88491153822967, 22.555460591483683, 92.51647333172876, 52.74567146343142, 62.59581317158887 
122.59865977111563, 9.186037617014271, 22.55522806016561, 91.78989819130496, 52.90258698661009, 62.59410648973457 
121.7120588620835, 9.490821573136843, 22.55498511424352, 91.0620674351688, 53.06185566654076, 62.59237710882248 
120.82594227133472, 9.799188776834528, 22.554731570864448, 90.33293691094863, 53.223456117865865, 62.590625442528896 
119.94026467512529, 10.111064050923932, 22.554467254993792, 89.60246111597068, 53.38736658298292, 62.588851913359775 
119.05497882747669, 10.426371683195656, 22.554191999777338, 88.8705931538575, 53.55356492956771, 62.587056952660944 
118.17003557222378, 10.74503543761339, 22.55390564689471, 88.13728468965977, 53.72202864783539, 62.58524100062237 
117.28538385543798, 11.06697856430928, 22.55360804690369, 87.4024859034549, 53.89273484752575, 62.58340450627727 
116.40097073818298, 11.392123808369421, 22.55329905957507, 86.66614544234402, 54.06566025459822, 62.58154792749558 
115.51674140956769, 11.720393417404509, 22.552978554217482, 85.92821037077611, 54.24078120762113, 62.5796717309716 
114.63263920006345, 12.051709147903358, 22.55264640999177, 85.18862611912512, 54.41807365383989, 62.577776392205706 
113.74860559505873, 12.385992270367941, 22.552302516214702, 84.4473364304436, 54.59751314490727, 62.575862395480144 
112.86458024862917, 12.723163573230897, 22.55194677265115, 83.70428330531271, 54.779074832258786, 62.57393023382837 
111.98050099750647, 13.063143365557512, 22.55157908979488, 82.95940694470656, 54.96273346211518, 62.57198040899824 
111.09630387523453, 13.40585147853642, 22.55119938913712, 82.21264569078473, 55.14846337009317, 62.57001343140863 
110.21192312650774, 13.751207265764059, 22.55080760342283, 81.46393596552498, 55.336238475404926, 62.56802982009958 
109.3272912216914, 14.099129602330049, 22.550403676894156, 80.71321220710409, 55.526032274625784, 62.56603010267553 
108.44233887153035, 14.449536882711826, 22.54998756552084, 79.96040680393196, 55.71781783500863, 62.564014815242025 
107.55699504205903, 14.802347017488199, 22.54955923721712, 79.20545002624173, 55.911567787322525, 62.561984502335214 
106.6711869697308, 15.157477428883247, 22.549118672045044, 78.44826995513417, 56.1072543181921, 62.55993971684465 
105.78484017679293, 15.514845045153104, 22.548665862403553, 77.688792408973, 56.30484916191307, 62.55788101992856 
104.89787848693867, 15.874366293829716, 22.548200813203522, 76.92694086702345, 56.50432359171794, 62.55580898092252 
