# MEX_intpoint_lon [deg], MEX_intpoint_lat [deg], MEX_intpoint_angle [deg], TGO_intpoint_lon [deg], TGO_intpoint_lat [deg], TGO_intpoint_angle [deg] 
-104.45988811414587, 20.540970322889144, 22.609709130623468, -166.71868104121768, 59.10414472274034, 62.53000625456514 
-105.35952325841673, 20.158279443888627, 22.610329806835566, -167.51550935097248, 58.88259400633165, 62.53220766537867 
-106.25745266270827, 19.77667068597704, 22.61093916912232, -168.30879146227613, 58.662533900457326, 62.53440342137844 
-107.15377367878578, 19.39623525445682, 22.61153704540454, -169.09864095305934, 58.44399985120549, 62.53659285765569 
-108.04858215847625, 19.017063677891993, 22.612123277301585, -169.88516780175505, 58.22702667828442, 62.53877531579261 
-108.9419724299981, 18.63924582818799, 22.61269772015097, -170.668478510147, 58.01164859338034, 62.540950144048075 
-109.83403727558354, 18.26287093979833, 22.61326024301134, -171.44867622179186, 57.79789921750733, 62.543116697535524 
-110.72486791025528, 17.88802762802357, 22.613810728648993, -172.22586083615116, 57.585811597396685, 62.54527433839329 
-111.6145539616317, 17.514803906369462, 22.614349073507984, -173.0001291185696, 57.37541822097132, 62.547422435947624 
-112.50318345064163, 17.14328720293412, 22.614875187663827, -173.7715748062366, 57.16675103194802, 62.549560366867716 
-113.39084277304163, 16.773564375795168, 22.61538899476102, -174.54028871026713, 56.959841443609086, 62.55168751531335 
-114.27761668163595, 16.4057217273705, 22.615890431934396, -175.30635881403603, 56.75472035178205, 62.55380327307487 
-115.16358826910894, 16.039845017727416, 22.616379449714533, -176.06987036789855, 56.551418147065256, 62.555907039705666 
-116.0488389513888, 15.676019476816851, 22.6168560119173, -176.83090598042824, 56.349964726334534, 62.55799822264688 
-116.93344845146831, 15.314329815611066, 22.61732009551781, -177.5895457062999, 56.150389503565066, 62.56007623734497 
-117.81749478361823, 14.954860236124453, 22.617771690508945, -178.34586713094302, 55.9527214200005, 62.562140507361434 
-118.70105423793507, 14.597694440298909, 22.618210799744563, -179.09994545208832, 55.756988953700365, 62.56419046447531 
-119.58420136517421, 14.242915637736312, 22.618637438767838, -179.851853558327, 55.56322012849479, 62.56622554877816 
-120.46700896182517, 13.890606552262382, 22.619051635624817, 179.39833789520156, 55.3714425223748, 62.56824520876205 
-121.34954805539483, 13.540849427307327, 22.619453430663466, 178.65056041388016, 55.1816832753446, 62.570248901400014 
-122.23188788986921, 13.193726030090309, 22.619842876318632, 177.9047475933328, 54.9939690967614, 62.57223609221952 
-123.11409591133364, 12.849317654595772, 22.62022003688305, 177.16083505168598, 54.80832627218708, 62.574206255368786 
-123.99623775373556, 12.507705123331585, 22.620584988264902, 176.41876036427004, 54.62478066977476, 62.576158873676434 
-124.87837722478238, 12.16896878785977, 22.620937817732017, 175.67846300065938, 54.4433577462124, 62.578093438703974 
-125.76057629197169, 11.8331885280925, 22.621278623643384, 174.9398842639572, 54.264082552244695, 62.580009450791536 
-126.64289506875795, 11.50044375034725, 22.621607515168066, 174.20296723223063, 54.08697973779331, 62.58190641909752 
-127.52539180086583, 11.170813384156466, 22.621924611992043, 173.46765670200702, 53.91207355669472, 62.58378386163104 
-128.40812285276496, 10.844375877828863, 22.62223004401338, 172.73389913374461, 53.739387871074335, 62.585641305278585 
-129.29114269432796, 10.521209192760752, 22.62252395102606, 172.00164259919464, 53.56894615537429, 62.58747828582416 
-130.17450388769703, 10.20139079649782, 22.622806482392992, 171.27083673057416, 53.400771500052066, 62.58929434796349 
-131.058257074392, 9.884997654548993, 22.623077796708575, 170.54143267147245, 53.23488661496598, 62.59108904531222 
-131.9424509626945, 9.57210622095639, 22.62333806145133, 169.81338302941654, 53.07131383246303, 62.592861940408525 
-132.82713231535124, 9.262792427626517, 22.623587452626992, 169.08664183002426, 52.91007511018419, 62.59461260470991 
-133.7123459376404, 8.957131672430437, 22.623826154402572, 168.36116447267588, 52.75119203360121, 62.59634061858468 
-134.59813466585263, 8.655198806082094, 22.624054358731918, 167.63690768763828, 52.5946858182987, 62.59804557129821 
-135.48453935623968, 8.357068117806252, 22.624272264973207, 166.9138294945779, 52.44057731201473, 62.59972706099399 
-136.37159887448973, 8.062813319809553, 22.62448007949897, 166.1918891624014, 52.28888699645241, 62.601384694669925 
-137.25935008579015, 7.7725075305705325, 22.62467801529895, 165.47104717036507, 52.13963498887486, 62.603018088149845 
-138.14782784554342, 7.486223256966397, 22.624866291576662, 164.7512651703974, 51.99284104349491, 62.60462686605034 
-139.03706499080445, 7.204032375256859, 22.625045133339878, 164.03250595057932, 51.848524552671215, 62.606210661743546 
-139.92709233250994, 6.926006110947889, 22.625214770985732, 163.31473339973155, 51.70670454792115, 62.60776911731559 
-140.81793864857386, 6.652215017560159, 22.625375439880955, 162.59791247305813, 51.56739970076132, 62.60930188352113 
-141.7096306779249, 6.382728954330126, 22.625527379937857, 161.8820091587987, 51.43062832338547, 62.61080861973421 
-142.60219311556352, 6.117617062873685, 22.625670835186437, 161.16699044584396, 51.29640836918953, 62.61228899389549 
-143.49564860871857, 5.856947742845244, 22.625806053343467, 160.4528242922692, 51.16475743315336, 62.613742682456106 
-144.39001775418365, 5.600788626627565, 22.625933285378817, 159.73947959474495, 51.03569275208785, 62.61516937031872 
-145.28531909691546, 5.349206553090473, 22.626052785079818, 159.02692615878283, 50.90923120475643, 62.616568750775166 
-146.1815691299759, 5.1022675404591675, 22.626164808614124, 158.3151346697793, 50.785389311879136, 62.61794052544181 
-147.07878229590074, 4.860036758335452, 22.62626961409172, 157.6040766648185, 50.66418323602757, 62.61928440419219 
-147.97697098957633, 4.622578498918221, 22.626367461126502, 156.89372450519946, 50.545628781418365, 62.62060010508744 
-148.8761455627066, 4.389956147471771, 22.626458610398302, 156.18405134965298, 50.429741393613014, 62.621887354304675 
-149.77631432995017, 4.162232152093677, 22.626543323215547, 155.47503112821548, 50.316536159131125, 62.62314588606342 
-150.67748357680665, 3.9394679928360845, 22.626621861079496, 154.7666385167283, 50.2060278049844, 62.624375442550615 
-151.579657569329, 3.7217241502373697, 22.62669448525035, 154.05884891193224, 50.09823069813801, 62.62557577384392 
-152.4828385657365, 3.5090600733231647, 22.626761456316004, 153.3516384071283, 49.9931588449062, 62.62674663783407 
-153.38702683000048, 3.3015341471386206, 22.626823033763877, 152.6449837683772, 49.89082589028823, 62.62788780014584 
-154.29222064746995, 3.099203659875792, 22.626879475556443, 151.93886241121075, 49.79124511725126, 62.628999034058864 
-155.19841634260382, 2.9021247696625423, 22.626931037711056, 151.23325237782998, 49.694429445965646, 62.63008012042703 
-156.10560829886836, 2.710352471081344, 22.626977973884518, 150.5281323147648, 49.60039143299899, 62.63113084759829 
-157.01378898085716, 2.5239405614885295, 22.62702053496304, 149.823481450973, 49.509143270474, 62.63215101133373 
-157.92294895868343, 2.34294160720616, 22.62705896865812, 149.1192795763551, 49.42069678519595, 62.63314041472699 
-158.83307693469104, 2.1674069096606674, 22.627093519108783, 148.415507020664, 49.33506343775484, 62.63409886812373 
-159.74415977252335, 1.9973864715437377, 22.627124426490887, 147.71214463278872, 49.25225432160707, 62.63502618904155 
-160.65618252858312, 1.8329289630722887, 22.627151926633736, 147.00917376039237, 49.17228016214187, 62.63592220209059 
-161.56912848591045, 1.6740816884256116, 22.6271762506449, 146.30657622988568, 49.09515131573681, 62.63678673889496 
-162.48297919049833, 1.5208905524385883, 22.6271976245433, 145.60433432671726, 49.02087776880704, 62.63761963801492 
-163.39771449005843, 1.373400027630439, 22.627216268901307, 144.90243077596392, 48.94946913685267, 62.63842074487054 
-164.31331257524207, 1.2316531216492017, 22.627232398496417, 144.20084872320342, 48.88093466350817, 62.639189911666456 
-165.22975002331322, 1.095691345212068, 22.62724622197263, 143.49957171565453, 48.81528321959819, 62.6399269973184 
-166.14700184426303, 0.9655546806217042, 22.627257941512276, 142.79858368356813, 48.752523302203215, 62.64063186738101 
-167.0650415293463, 0.841281550938368, 22.627267752518605, 142.0978689218546, 48.69266303373901, 62.641304393977954 
-167.9838411020128, 0.7229087898869603, 22.62727584330956, 141.39741207193399, 48.635710161053204, 62.641944455733764 
-168.90337117119714, 0.6104716125772827, 22.627282394823208, 140.69719810379394, 48.58167205454249, 62.64255193770788 
-169.8236009869231, 0.5040035871145431, 22.627287580335086, 139.99721229824343, 48.53055570729344, 62.643126731331044 
-170.7444984981689, 0.40353660717567175, 22.62729156518798, 139.29744022934855, 48.48236773425012, 62.64366873434412 
-171.66603041293234, 0.30910086562519495, 22.627294506534454, 138.59786774703892, 48.437114371411305, 62.64417785073937 
-172.5881622604258, 0.22072482924250805, 22.62729655309233, 137.898480959872, 48.39480147505999, 62.644653990704754 
-173.51085845532276, 0.1384352146297116, 22.62729784491376, 137.19926621794463, 48.35543452102779, 62.645097070570706 
-174.4340823639696, 0.062256965366942286, 22.62729851316782, 136.50021009594033, 48.31901860399649, 62.64550701275994 
-175.3577963724688, -0.007786769521188877, 22.6272986799372, 135.80129937630159, 48.28555843683923, 62.64588374574046 
-176.28196195653155, -0.0716746557272537, 22.62729845802915, 135.10252103251673, 48.25505835000319, 62.6462272039816 
-177.20653975299047, -0.12938719239376256, 22.62729795080087, 134.40386221251188, 48.227522290935646, 62.6465373279133 
-178.1314896328576, -0.18090672936341048, 22.627297251999767, 133.70531022213697, 48.202953823555475, 62.64681406388866 
-179.05677077580413, -0.22621748289733257, 22.62729644561857, 133.0068525087375, 48.18135612777137, 62.647057364150164 
-179.98234174593406, -0.26530554981591103, 22.62729560576562, 132.30847664480174, 48.162731999048376, 62.64726718679902 
179.0918394312818, -0.29815892002120065, 22.627294796550547, 131.61017031167484, 48.14708384802408, 62.64744349576825 
178.16581519105094, -0.32476748736428407, 22.627294071985347, 130.91192128333054, 48.13441370017553, 62.64758626079952 
177.2396283504261, -0.34512305882590943, 22.627293475901087, 130.21371741019163, 48.1247231955378, 62.64769545742322 
176.3133220287417, -0.3592193619833659, 22.62729304188038, 129.51554660299087, 48.118013588475165, 62.647771066942724 
175.38693956746923, -0.36705205074162195, 22.62729279320562, 128.81739681666315, 48.11428574750547, 62.647813076421976 
174.46052444964513, -0.36861870931183915, 22.62729274282309, 128.1192560342611, 48.1135401551782, 62.647821478677024 
173.53412021902543, -0.36391885442545363, 22.627292893323055, 127.42111225088519, 48.11577690800667, 62.647796272271314 
172.60777039912287, -0.35295393577734224, 22.62729323693573, 126.72295345762004, 48.120995716454395, 62.64773746151474 
171.68151841228374, -0.33572733469668437, 22.627293755543306, 126.0247676254689, 48.129195904975816, 62.64764505646643 
170.75540749895933, -0.3122443610495444, 22.627294420707795, 125.3265426892774, 48.14037641211129, 62.64751907294155 
169.8294806373286, -0.2825122483822418, 22.627295193714886, 124.62826653163859, 48.15453579063583, 62.64735953252135 
168.90378046342497, -0.24654014731989102, 22.627296025633637, 123.92992696677037, 48.17167220776148, 62.64716646256762 
167.97834919191936, -0.20433911723962495, 22.627296857391826, 123.23151172435753, 48.19178344539251, 62.64693989624031 
167.0532285377083, -0.15592211624288638, 22.627297619867164, 122.53300843334867, 48.21486690043275, 62.646679872519194 
166.12845963845152, -0.1013039894562681, 22.62729823399382, 121.8344046057004, 48.24091958514424, 62.64638643622875 
165.2040829782014, -0.04050145569507245, 22.627298610884598, 121.13568762005904, 48.26993812755596, 62.64605963806726 
164.28013831225965, 0.026466907471664816, 22.62729865196813, 120.43684470537129, 48.30191877192164, 62.64569953463867 
163.3566645933928, 0.09958068021133251, 22.62729824914129, 119.73786292441427, 48.33685737922512, 62.64530618848851 
162.433699899532, 0.17881761842572114, 22.627297284936382, 119.03872915723572, 48.37474942773178, 62.64487966814281 
161.51128136307628, 0.264153673205116, 22.627295632702985, 118.33943008449472, 48.41559001358431, 62.64442004815049 
160.58944510191142, 0.3555630116833085, 22.6272931568042, 117.63995217069242, 48.459373851441136, 62.64392740912891 
159.66822615225027, 0.4530180392344553, 22.627289712826986, 116.94028164728338, 48.50609527515529, 62.643401837812426 
158.7476584033923, 0.5564894229497069, 22.627285147806436, 116.24040449565608, 48.55574823849169, 62.64284342710411 
157.82777453449245, 0.6659461163281236, 22.62727930046351, 115.54030642997247, 48.608326315880525, 62.64225227613023 
156.90860595342193, 0.7813553851139374, 22.62727200145603, 114.8399728798546, 48.66382270320422, 62.64162849029753 
155.99018273779473, 0.9026828342095733, 22.62726307364266, 114.13938897290748, 48.72223021861536, 62.64097218135305 
155.07253357822563, 1.029892435591557, 22.62725233235929, 113.43853951706511, 48.78354130338281, 62.64028346744673 
154.1556857238772, 1.162946557154695, 22.627239585707773, 112.73740898274815, 48.84774802276319, 62.6395624731961 
153.23966493034396, 1.3018059924081309, 22.627224634856322, 112.03598148481957, 48.91484206689426, 62.638809329753364 
152.3244954099145, 1.446429990945598, 22.62720727435142, 111.33424076432516, 48.984814751707496, 62.638024174874445 
151.4101997842433, 1.5967762896111521, 22.627187292440638, 110.63217017000468, 49.05765701985582, 62.63720715299011 
150.4967990394549, 1.7528011442808267, 22.6271644714061, 109.92975263955925, 49.13335944165338, 62.63635841527861 
149.5843124836961, 1.9144593621802706, 22.627138587907982, 109.22697068065976, 49.21191221602358, 62.635478119740384 
148.67275770714272, 2.0817043346581543, 22.627109413337763, 108.5238063516804, 49.293305171450946, 62.63456643127354 
147.76215054446004, 2.2544880703351606, 22.627076714180593, 107.82024124214117, 49.37752776693354, 62.633623521751254 
146.85250503970815, 2.4327612285487037, 22.62704025238647, 107.11625645284205, 49.46456909293105, 62.63264957009972 
145.9438334136757, 2.6164731530142284, 22.62699978574958, 106.4118325756709, 49.55441787230444, 62.63164476237731 
145.0361460336195, 2.805571905624414, 22.62695506829534, 105.70694967306689, 49.64706246124246, 62.63060929185438 
144.12945138537916, 3.000004300308977, 22.626905850674788, 105.0015872571196, 49.74249085017032, 62.629543359093525 
143.22375604783065, 3.199715936878734, 22.626851880565507, 104.29572426828412, 49.840690664635595, 62.628447172030036 
142.31906466963625, 3.4046512347792253, 22.62679290307882, 103.58933905369038, 49.94164916616616, 62.627320946053 
141.41537994824242, 3.6147534666805883, 22.626728661172585, 102.88240934502562, 50.045353253094966, 62.62616490408556 
140.51270261107234, 3.8299647918324182, 22.626658896069028, 102.17491223596619, 50.15178946134607, 62.62497927666556 
139.61103139885498, 4.050226289114018, 22.626583347677208, 101.46682415913547, 50.260943965176224, 62.62376430202525 
138.71036305102746, 4.2754779897127415, 22.62650175501934, 100.75812086256244, 50.37280257786631, 62.62252022617076 
137.81069229314454, 4.50565890936521, 22.62641385666062, 100.04877738561522, 50.4873507523563, 62.621247302960036 
136.9120118262253, 4.740707080098505, 22.626319391141827, 99.33876803438248, 50.6045735818176, 62.619945794180495 
136.01431231796312, 4.980559581410967, 22.626218097414252, 98.62806635647375, 50.72445580015619, 62.61861596962438 
135.11758239572367, 5.225152570834523, 22.626109715276325, 97.91664511521006, 50.84698178243991, 62.61725810716357 
134.221808641253, 5.474421313823208, 22.625993985811288, 97.20447626317313, 50.97213554524281, 62.61587249282186 
133.32697558701577, 5.728300212915, 22.62587065182557, 96.49153091508188, 51.099900746899394, 62.61445942084575 
132.43306571408257, 5.986722836116955, 22.625739458286937, 95.77777931996155, 51.23026068766146, 62.61301919377288 
131.54005945148518, 6.249621944465959, 22.625600152762228, 95.06319083257179, 51.363198309749485, 62.6115521224981 
130.64793517695628, 6.5169295187205485, 22.625452485853796, 94.347733884056, 51.498696197290954, 62.610058526336864 
129.75666921897275, 6.788576785141513, 22.6252962116342, 93.63137595177471, 51.63673657613705, 62.60853873308611 
128.8662358600189, 7.064494240322057, 22.625131088078582, 92.91408352828273, 51.777301313549394, 62.60699307908165 
127.97660734098993, 7.344611675030681, 22.62495687749418, 92.19582208940919, 51.92037191774779, 62.6054219092528 
127.0877538666546, 7.6288581970327085, 22.624773346946313, 91.47655606139685, 52.0659295373099, 62.603825577173204 
126.19964361209809, 7.917162252859225, 22.624580268680333, 90.75624878705595, 52.21395496041332, 62.602204445108335 
125.3122427300692, 8.209451648494152, 22.624377420539073, 90.03486249088581, 52.364428613910135, 62.600558884058856 
124.4255153591559, 8.50565356895356, 22.624164586375073, 89.31235824311487, 52.5173305622237, 62.59888927380017 
123.53942363271763, 8.805694596732932, 22.623941556457144, 88.58869592260889, 52.67264050605719, 62.59719600291756 
122.65392768850394, 9.109500729101256, 22.623708127870746, 87.86383417859365, 52.830337780902646, 62.59547946883706 
121.76898567889381, 9.41699739422252, 22.623464104911555, 87.13773039113731, 52.9904013553392, 62.59374007785157 
120.8845537816908, 9.728109466088082, 22.623209299471828, 86.41034063033464, 53.15280982910854, 62.5919782451422 
120.00058621141551, 10.042761278245043, 22.62294353141889, 85.6816196141335, 53.31754143095518, 62.590194394794636 
119.11703523103824, 10.360876636308365, 22.62266662896544, 84.95152066474066, 53.48457401621866, 62.588388959810295 
118.2338511641002, 10.682378829246218, 22.62237842903099, 84.21999566354272, 53.65388506416432, 62.58656238211229 
117.35098240717521, 11.007190639430144, 22.622078777594087, 83.48699500447417, 53.825451675038515, 62.58471511254554 
116.46837544262847, 11.335234351443836, 22.62176753003472, 82.75246754576241, 53.999250566833794, 62.58284761087159 
115.58597485163354, 11.666431759645546, 22.62144455146667, 82.01636055997695, 54.1752580717489, 62.58096034575734 
114.7037233274134, 12.000704174481774, 22.621109717059095, 81.27861968230656, 54.35345013232762, 62.579053794757925 
113.82156168867742, 12.337972427550781, 22.62076291234709, 80.53918885698609, 54.53380229725993, 62.577128444293265 
112.93942889322919, 12.678156875416898, 22.620404033530725, 79.79801028179043, 54.7162897168284, 62.57518478961862 
112.05726205172844, 13.021177402177578, 22.620032987762233, 79.05502435051132, 54.900887137981314, 62.57322333478844 
111.17499644159318, 13.366953420787214, 22.61964969342084, 78.31016959332854, 55.08756889901426, 62.57124459261386 
110.29256552103591, 13.715403873142908, 22.619254080374937, 77.56338261498433, 55.27630892383989, 62.56924908461345 
109.4099009432327, 14.06644722893897, 22.618846090231255, 76.81459803066652, 55.467080715825496, 62.56723734095726 
108.52693257063012, 14.420001483298547, 22.618425676570627, 76.06374839950226, 55.659857351176804, 62.565209900403694 
107.64358848940218, 14.77598415319176, 22.617992805170044, 75.31076415556136, 55.85461147184511, 62.563167310229936 
106.75979502407449, 15.134312272651675, 22.61754745421069, 74.55557353626456, 56.05131527793439, 62.5611101261546 
105.87547675234133, 15.494902386800282, 22.617089614471634, 73.79810250808865, 56.249940519583255, 62.55903891225383 
104.99055652010644, 15.857670544698456, 22.616619289508982, 73.03827468945734, 56.45045848829582, 62.55695424086971 
