# MEX_intpoint_lon [deg], MEX_intpoint_lat [deg], MEX_intpoint_angle [deg], TGO_intpoint_lon [deg], TGO_intpoint_lat [deg], TGO_intpoint_angle [deg] 
-104.56164376504823, 20.563992523378232, 22.67174437320036, -170.4872949080581, 59.04380025956871, 62.53130184787563 
-105.45935394803315, 20.178123814574075, 22.672372634416025, -171.2807390251325, 58.82043648518541, 62.533523955799964 
-106.35535665716677, 19.793355311533137, 22.67298936305631, -172.07066454597864, 58.59858371431712, 62.53574030216416 
-107.24975056671228, 19.409778539890052, 22.673594385062554, -172.85718511268556, 58.37827731009817, 62.537950215914705 
-108.14263280968198, 19.027484345917344, 22.6741875403398, -173.6404107311321, 58.159552014001406, 62.5401530326154 
-109.03409895534031, 18.646562917371874, 22.674768682776385, -174.4204478967637, 57.94244196415973, 62.54234809463425 
-109.92424298795746, 18.267103803432, 22.675337680246557, -175.19739971572383, 57.72698071266913, 62.54453475132302 
-110.81315728667421, 17.889195933691315, 22.675894414596364, -175.97136602149052, 57.51320124192234, 62.546712359188604 
-111.70093260634944, 17.51292763617675, 22.67643878161276, -176.7424434871714, 57.30113598001913, 62.548880282057084 
-112.58765805927045, 17.138386654361447, 22.676970690976077, -177.51072573360568, 57.09081681529766, 62.55103789122971 
-113.4734210976177, 16.76566016314394, 22.677490066195904, -178.27630343342312, 56.88227511002849, 62.553184565631305 
-114.35830749658281, 16.39483478376788, 22.677996844530544, -179.03926441120555, 56.6755417133116, 62.555319691950885 
-115.24240133804953, 16.025996597657656, 22.678490976890217, -179.79969373989493, 56.470646973214244, 62.55744266477448 
-116.12578499475536, 15.659231159146957, 22.678972427724077, 179.44232616641094, 56.267620748185706, 62.55955288671032 
-117.00853911485947, 15.294623507079399, 22.67944117489136, 178.6867154631384, 56.066492417783714, 62.561649768506484 
-117.89074260685238, 14.932258175260891, 22.679897209516746, 177.93339678925798, 55.86729089274498, 62.563732729160556 
-118.77247262474923, 14.572219201745966, 22.68034053583024, 177.18229518451534, 55.67004462443142, 62.565801196022306 
-119.65380455351765, 14.214590136940632, 22.680771170991715, 176.43333800974477, 55.47478161368145, 62.56785460488826 
-120.53481199469734, 13.859454050506628, 22.681189144900543, 175.68645487014305, 55.281529419094966, 62.56989240008926 
-121.41556675217772, 13.506893537052424, 22.681594499990357, 174.94157754138348, 55.09031516477889, 62.571914034570476 
-122.29613881810519, 13.156990720598476, 22.681987291009484, 174.19863989845473, 54.901165547578955, 62.57391896996428 
-123.17659635889962, 12.809827257804967, 22.682367584787155, 173.45757784711242, 54.71410684382242, 62.575906676655805 
-124.05700570136638, 12.465484339951956, 22.68273545998595, 172.7183292578355, 54.529164915595004, 62.57787663384152 
-124.93743131889636, 12.12404269366308, 22.68309100684077, 171.98083390218284, 54.34636521657437, 62.57982832958081 
-125.81793581775294, 11.785582580365464, 22.683434326884694, 171.24503339144928, 54.16573279744154, 62.58176126084083 
-126.69857992345091, 11.450183794479909, 22.683765532662136, 170.51087111752446, 53.98729231089064, 62.583674933534425 
-127.57942246723901, 11.117925660336663, 22.684084747429605, 169.7782921958601, 53.81106801625624, 62.58556886255149 
-128.4605203727023, 10.788887027814154, 22.684392104844633, 169.04724341045653, 53.63708378377716, 62.58744257178415 
-129.3419286425074, 10.463146266698894, 22.68468774864313, 168.31767316078103, 53.46536309851425, 62.589295594145234 
-130.22370034531824, 10.140781259767197, 22.684971832305674, 167.5895314105349, 53.295929063939504, 62.5911274715808 
-131.10588660291603, 9.821869394590314, 22.68524451871318, 166.862769638189, 53.12880440521242, 62.59293775507657 
-131.98853657756075, 9.506487554066949, 22.685505979792442, 166.137340789211, 52.964011472159505, 62.594726004658646 
-132.8716974596386, 9.194712105688533, 22.68575639615196, 165.41319922990925, 52.80157224197183, 62.59649178938827 
-133.75541445564164, 8.886618889544815, 22.685995956708542, 164.69030070282338, 52.64150832163488, 62.598234687351336 
-134.63973077653316, 8.58228320507914, 22.686224858305295, 163.96860228359242, 52.48384095010462, 62.59995428564237 
-135.52468762655417, 8.281779796604933, 22.686443305321284, 163.24806233923525, 52.32859100024287, 62.601650180343455 
-136.41032419253222, 7.985182837596977, 22.686651509273638, 162.52864048777988, 52.17577898052471, 62.6033219764981 
-137.29667763375576, 7.692565913773373, 22.686849688412476, 161.81029755918217, 52.025425036530315, 62.604969288080426 
-138.18378307248258, 7.4040020049863084, 22.687038067309157, 161.0929955574746, 51.877548952232594, 62.606591737959576 
-139.07167358515233, 7.119563465941913, 22.687216876438526, 160.3766976240909, 51.73217015109218, 62.608188957859944 
-139.9603801943774, 6.839322005772439, 22.687386351755663, 159.66136800231192, 51.5893076969707, 62.609760588317 
-140.84993186178866, 6.563348666485746, 22.687546734267595, 158.9469720027826, 51.448980294872584, 62.611306278629236 
-141.7403554818143, 6.291713800320369, 22.687698269600673, 158.2334759700504, 51.31120629152556, 62.612825686806254 
-142.6316758764729, 6.0244870460364535, 22.687841207564144, 157.52084725007848, 51.17600367580972, 62.61431847951345 
-143.52391579126314, 5.761737304175881, 22.68797580171042, 156.80905415868818, 51.04339007904436, 62.615784332012986 
-144.41709589223422, 5.50353271132736, 22.68810230889272, 156.09806595088816, 50.913382775141706, 62.61722292810187 
-145.31123476432094, 5.249940613435217, 22.688220988820625, 155.38785279104806, 50.785998680636325, 62.618633960047084 
-146.2063489110296, 5.001027538193116, 22.688332103614144, 154.6783857238779, 50.66125435459851, 62.6200171285177 
-147.10245275555997, 4.7568591665669056, 22.68843591735682, 153.96963664617434, 50.53916599844, 62.62137214251501 
-147.99955864344804, 4.517500303493464, 22.688532695648576, 153.261578279298, 50.41974945561966, 62.6226987192997 
-148.89767684681556, 4.283014847805216, 22.68862270515882, 152.5541841423462, 50.3030202112571, 62.62399658431759 
-149.79681557030798, 4.053465761432712, 22.688706213180357, 151.84742852598896, 50.18899339166106, 62.62526547112287 
-150.69698095880491, 3.8289150379403836, 22.68878348718477, 151.14128646693456, 50.07768376378019, 62.62650512130032 
-151.59817710698138, 3.609423670453304, 22.68885479437988, 150.4357337229954, 49.969105734582946, 62.62771528438573 
-152.50040607079893, 3.3950516190352724, 22.688920401269737, 149.73074674872382, 49.8632733503729, 62.628895717785014 
-153.40366788100005, 3.185857777581221, 22.688980573217872, 149.02630267159023, 49.76020029604657, 62.63004618669279 
-154.30796055867867, 2.9818999402892867, 22.689035574014248, 148.32237926867654, 49.65989989429935, 62.631166464009596 
-155.21328013299305, 2.7832347677802707, 22.68908566544662, 147.61895494385857, 49.562385104785925, 62.63225633025909 
-156.1196206610854, 2.589917752934407, 22.689131106876765, 146.91600870545324, 49.46766852324089, 62.633315573504554 
-157.02697425026616, 2.4020031865175158, 22.68917215482216, 146.21352014430656, 49.375762380565156, 62.63434398926517 
-157.9353310825167, 2.2195441226704733, 22.68920906254373, 145.51146941229965, 49.286678541883525, 62.635341380432784 
-158.8446794413582, 2.042592344337779, 22.689242079640064, 144.8098372012513, 49.20042850557893, 62.63630755718854 
-159.7550057411285, 1.8711983287124767, 22.68927145164887, 144.10860472219565, 49.11702340230791, 62.63724233692003 
-160.66629455870245, 1.7054112127762664, 22.689297419655883, 143.40775368501562, 49.03647399400279, 62.63814554413927 
-161.57852866768403, 1.545278759014634, 22.689320219912066, 142.70726627841262, 48.95879067286477, 62.63901701040143 
-162.49168907509187, 1.390847321388002, 22.68934008345933, 142.00712515019384, 48.883983460352724, 62.63985657422457 
-163.40575506055208, 1.2421618116403543, 22.689357235765502, 141.30731338786035, 48.81206200617194, 62.64066408101055 
-164.32070421800483, 1.0992656660275169, 22.689371896368865, 140.60781449947817, 48.74303558726712, 62.641439382967626 
-165.23651249992164, 0.96220081254745, 22.68938427853276, 139.9086123948166, 48.67691310682343, 62.64218233903425 
-166.15315426402478, 0.8310076387546907, 22.689394588910847, 139.2096913667384, 48.61370309327977, 62.64289281480491 
-167.07060232248858, 0.7057249602409286, 22.689403027223218, 138.5110360728261, 48.55341369935765, 62.6435706824577 
-167.98882799359626, 0.5863899898630149, 22.689409785944076, 137.81263151723115, 48.49605270110943, 62.644215820684224 
-168.9078011558156, 0.4730383077987953, 22.689415050001188, 137.11446303273095, 48.441627496989064, 62.64482811462124 
-169.82749030424915, 0.3657038325099363, 22.68941899648754, 136.41651626298167, 48.39014510694886, 62.645407455785424 
-170.7478626094043, 0.2644187926894317, 22.68942179438567, 135.71877714495278, 48.34161217156496, 62.645953742009894 
-171.66888397822194, 0.16921370026964624, 22.689423604305, 135.02123189153227, 48.296034951194734, 62.646466877384015 
-172.59051911729128, 0.08011732456465055, 22.689424578232437, 134.32386697428936, 48.25341932516857, 62.64694677219557 
-173.5127315981717, -0.0028433323817864662, 22.689424859296725, 133.62666910638447, 48.21377079101877, 62.647393342876114 
-174.4354839247338, -0.0796430591739433, 22.689424581546692, 132.92962522561444, 48.17709446374794, 62.64780651194923 
-175.3587376024219, -0.15025845710193803, 22.689423869743845, 132.2327224775826, 48.14339507513912, 62.648186207982 
-176.28245320933587, -0.21466796077717218, 22.68942283916947, 131.53594819898333, 48.112676973109714, 62.648532365539715 
-177.2065904690185, -0.2728518573066232, 22.68942159544655, 130.839289900991, 48.084944121111164, 62.64884492514382 
-178.13110832483116, -0.3247923039508603, 22.689420234376772, 130.1427352527432, 48.06020009757631, 62.64912383323356 
-179.05596501579143, -0.370473344214856, 22.689418841792712, 129.4462720649092, 48.038448095415724, 62.64936904213083 
-179.98111815374085, -0.40988092232469747, 22.689417493425555, 128.74988827333357, 48.01969092156477, 62.64958051000882 
179.09347519829421, -0.4430028960480712, 22.6894162547884, 128.0535719227466, 48.00393099658262, 62.64975820086427 
178.16785844669178, -0.4698290478208214, 22.689415181075404, 127.35731115053227, 47.99117035430438, 62.64990208449342 
177.24207538692036, -0.49035109414680705, 22.68941431707677, 126.66109417054436, 47.98141064154715, 62.65001213647173 
176.31617012247355, -0.504562693243375, 22.689413697109895, 125.96490925696327, 47.97465311787113, 62.65008833813739 
175.39018698320734, -0.5124594509096543, 22.689413344966493, 125.26874472818393, 47.97089865539624, 62.65013067657871 
174.4641704432371, -0.5140389246003796, 22.689413273876074, 124.57258893072688, 47.97014773867491, 62.65013914462543 
173.53816503855413, -0.509300625693053, 22.689413486485545, 123.87643022316381, 47.97240046462111, 62.65011374084365 
172.61221528452103, -0.4982460199417127, 22.68941397485518, 123.18025696004945, 47.977656542496355, 62.650054469535156 
171.6863655934077, -0.48087852611594584, 22.689414720470804, 122.48405747585164, 47.98591529395207, 62.64996134073999 
170.76066019212786, -0.457203512829258, 22.68941569427227, 121.78782006887032, 47.997175653128785, 62.64983437024367 
169.83514304033682, -0.4272282935661169, 22.689416856698173, 121.09153298513844, 48.01143616681142, 62.64967357958744 
168.9098577490476, -0.39096211992260427, 22.68941815774671, 120.39518440229506, 48.028694994640574, 62.64947899608323 
167.98484749992235, -0.3484161730805537, 22.68941953705263, 119.69876241342308, 48.04894990937899, 62.64925065283178 
167.06015496539123, -0.2996035535405998, 22.689420923980208, 119.00225501084238, 48.07219829723251, 62.64898858874487 
166.1358222297485, -0.24453926914422092, 22.689422237731975, 118.30565006985002, 48.09843715822482, 62.6486928485712 
165.21189071137073, -0.18324022142016952, 22.68942338747331, 117.60893533239845, 48.12766310662436, 62.64836348292617 
164.28840108619707, -0.1157251902951172, 22.689424272472447, 116.91209839070268, 48.159872371422956, 62.64800054832472 
163.3653932126069, -0.04201481721313341, 22.689424782255905, 116.21512667076736, 48.19506079686408, 62.6476041072185 
162.44290605782254, 0.03786841328709705, 22.689424796779118, 115.51800741582406, 48.233223843019545, 62.64717422803588 
161.52097762596063, 0.12390019348426934, 22.689424186611877, 114.82072766966918, 48.27435658641301, 62.64671098522563 
160.59964488784624, 0.2160544138186726, 22.689422813138584, 114.12327425989263, 48.31845372068811, 62.64621445930394 
159.67894371269864, 0.31430318560794496, 22.68942052877281, 113.42563378098679, 48.365509557319534, 62.64568473690445 
158.75890880178835, 0.41861686507037205, 22.689417177186076, 112.72779257732545, 48.41551802636464, 62.64512191083164 
157.8395736241582, 0.5289640785884762, 22.689412593550376, 112.02973672600159, 48.46847267725344, 62.644526080116776 
156.92097035449217, 0.645311749142902, 22.689406604794293, 111.3314520195127, 48.524366679614296, 62.6438973500773 
156.00312981320778, 0.7676251238439753, 22.6893990298722, 110.63292394828238, 48.58319282413292, 62.64323583237844 
155.08608140883848, 0.8958678024861779, 22.689389680046308, 109.93413768300536, 48.644943523441526, 62.6425416450976 
154.16985308276483, 1.0300017670486066, 22.689378359181134, 109.23507805680418, 48.70961081303556, 62.64181491279139 
153.25447125634284, 1.1699874120630458, 22.689364864050034, 108.53572954718396, 48.77718635221456, 62.6410557665645 
152.33996078047122, 1.3157835757697702, 22.689348984653343, 107.83607625777181, 48.84766142504401, 62.64026434414132 
151.42634488762798, 1.4673475719802567, 22.689330504547716, 107.13610189982703, 48.921026941334816, 62.63944078993916 
150.5136451464004, 1.6246352225650698, 22.68930920118631, 106.43578977350714, 48.99727343763649, 62.6385852551433 
149.60188141852223, 1.787600890484899, 22.68928484626918, 105.73512274887477, 49.076391078240725, 62.63769789778395 
148.69107181842435, 1.9561975132823608, 22.689257206103687, 105.03408324662911, 49.15836965619099, 62.636778882814646 
147.78123267529676, 2.130376636952338, 22.689226041974152, 104.33265321854573, 49.243198594294284, 62.63582838219161 
146.87237849765216, 2.310088450109027, 22.689191110520472, 103.63081412760762, 49.33086694613076, 62.634846574954835 
145.9645219403725, 2.495281818368362, 22.689152164125147, 102.9285469278088, 49.42136339705667, 62.63383364730967 
145.0576737742147, 2.6859043188654286, 22.689108951308114, 102.2258320436125, 49.51467626519616, 62.63278979270923 
144.15184285774254, 2.8819022748274516, 22.68906121712905, 101.52264934904373, 49.610793502416946, 62.63171521193757 
143.24703611164657, 3.0832207901243716, 22.689008703596393, 100.81897814639635, 49.7097026952852, 62.63061011319298 
142.34325849540653, 3.2898037837203984, 22.688951150082737, 100.1147971445327, 49.811391065994066, 62.629474712171614 
141.44051298624711, 3.501594023951658, 22.688888293745936, 99.41008443675423, 49.915845473260916, 62.628309232150926 
140.53880056032864, 3.718533162556984, 22.68881986995537, 98.70481747821921, 50.023052413187585, 62.62711390407297 
139.6381201761141, 3.940561768390717, 22.688745612722876, 97.99897306288403, 50.13299802007784, 62.625888966627244 
138.7384687598451, 4.167619360748826, 22.688665255137714, 97.29252729994201, 50.24566806720637, 62.62463466633273 
137.83984119305825, 4.399644442241681, 22.688578529805, 96.58545558973391, 50.361047967532905, 62.623351257619134 
136.9422303020687, 4.636574531149287, 22.688485169287073, 95.87773259910247, 50.47912277435548, 62.622039002907094 
136.0456268493439, 4.8783461931975, 22.68838490654716, 95.1693322361618, 50.599877181896005, 62.62069817268698 
135.1500195266899, 5.124895072695843, 22.68827747539476, 94.4602276244521, 50.723295525811416, 62.61932904559604 
134.25539495016744, 5.376155922980722, 22.688162610932253, 93.75039107644798, 50.84936178362369, 62.61793190849417 
133.3617376566569, 5.632062636110093, 22.68804005000197, 93.03979406638801, 50.978059575061096, 62.61650705653721 
132.46903010198616, 5.892548271758701, 22.68790953163329, 92.3284072023908, 51.109372162303465, 62.61505479324849 
131.57725266053762, 6.157545085265412, 22.687770797489165, 91.6162001978226, 51.24328245012362, 62.613575430587765 
130.6863836262481, 6.426984554787376, 22.687623592311333, 90.9031418418784, 51.379772985917064, 62.61206928901748 
129.79639921491702, 6.7007974075180154, 22.687467664363833, 90.1891999693388, 51.51882595961141, 62.61053669756633 
128.9072735677367, 6.97891364492915, 22.687302765874065, 89.47434142946081, 51.66042320344728, 62.60897799388966 
128.01897875596148, 7.261262566999695, 22.687128653471035, 88.75853205396133, 51.80454619162147, 62.607393524326724 
127.13148478663193, 7.547772795396684, 22.686945088619872, 88.04173662404874, 51.95117603978338, 62.605783643954226 
126.24475960927239, 7.838372295576681, 22.686751838052356, 87.32391883645637, 52.100293504375045, 62.60414871663654 
125.35876912348267, 8.132988397778186, 22.68654867419283, 86.60504126843054, 52.25187898180497, 62.60248911507157 
124.47347718734551, 8.43154781687874, 22.686335375578686, 85.88506534162194, 52.40591250744529, 62.60080522083306 
123.5888456265752, 8.733976671092222, 22.686111727275247, 85.16395128482955, 52.56237375444181, 62.599097424407965 
122.70483424433488, 9.04020049948497, 22.685877521284205, 84.44165809554114, 52.72124203232573, 62.597366125229996 
121.82140083165311, 9.350144278291229, 22.685632556945208, 83.7181435002149, 52.882496285415584, 62.5956117317078 
120.93850117837407, 9.663732436011164, 22.685376641330002, 82.99336391324175, 53.046115090997276, 62.59383466124894 
120.05608908457896, 9.980888867276471, 22.68510958962872, 82.2672743945281, 53.21207665727009, 62.59203534027809 
119.17411637242026, 10.301536945471323, 22.68483122552761, 81.53982860563306, 53.38035882104536, 62.59021420425067 
118.29253289831429, 10.625599534097962, 22.684541381577873, 80.81097876439475, 53.55093904518456, 62.58837169766048 
117.41128656544267, 10.952998996878577, 22.68423989955508, 80.08067559797485, 53.72379441576258, 62.58650827404203 
116.53032333651646, 11.283657206587149, 22.683926630808617, 79.34886829424934, 53.89890163894174, 62.58462439596706 
115.64958724676296, 11.617495552606256, 22.68360143660073, 78.6155044514698, 54.07623703754095, 62.582720535035065 
114.76902041709889, 11.954434947206519, 22.68326418843476, 77.88053002611618, 54.25577654728447, 62.58079717185773 
113.88856306745984, 12.294395830547083, 22.6829147683721, 77.14388927886002, 54.437495712713236, 62.57885479603721 
113.00815353026019, 12.637298174398234, 22.68255306933737, 76.40552471855219, 54.621369682741545, 62.57689390613787 
112.12772826396431, 12.983061484587806, 22.6821789954115, 75.66537704414773, 54.80737320584089, 62.57491500965159 
111.24722186675443, 13.331604802175605, 22.681792462112302, 74.92338508447489, 54.99548062483192, 62.572918622956465 
110.36656709028746, 13.682846703360697, 22.68139339666208, 74.17948573575394, 55.185665871264526, 62.57090527126856 
109.48569485353863, 14.036705298128473, 22.680981738241943, 73.4336138967666, 55.37790245936539, 62.56887548858687 
108.60453425673568, 14.39309822764553, 22.68055743823259, 72.6857024015731, 55.57216347953105, 62.56682981763133 
107.72301259539486, 14.75194266041181, 22.680120460440953, 71.93568194967125, 55.76842159134358, 62.56476880977347 
106.84105537447557, 15.113155287180989, 22.679670781312673, 71.1834810334871, 55.96664901608511, 62.562693024960026 
105.95858632267785, 15.47665231466106, 22.679208390129933, 70.42902586308352, 56.166817528725865, 62.56060303162931 
105.07552740691368, 15.842349458009023, 22.67873328919443, 69.6722402879692, 56.368898449359406, 62.558499406619895 
