# MEX_intpoint_lon [deg], MEX_intpoint_lat [deg], MEX_intpoint_angle [deg], TGO_intpoint_lon [deg], TGO_intpoint_lat [deg], TGO_intpoint_angle [deg] 
-103.83390965828998, 20.395093885427205, 22.238185108408587, -145.1229281964629, 58.960014025966025, 62.530697142468426 
-104.74480735303092, 20.031814410300772, 22.23876049964934, -145.9118515502683, 58.7342320975819, 62.532946823222915 
-105.65401894945742, 19.66950994466289, 22.2393258531442, -146.69729477557863, 58.50998832194902, 62.53519059754131 
-106.56163371610405, 19.30826950652601, 22.239881008675205, -147.47937152932937, 58.287317949001874, 62.53742778618938 
-107.4677396644588, 18.94818145868446, 22.24042581817529, -148.2581917864403, 58.06625561368162, 62.53965771672151 
-108.37242351918772, 18.589333524212236, 22.24096014574789, -149.03386196936736, 57.84683535418495, 62.54187972366972 
-109.27577068983838, 18.23181280129645, 22.2414838676718, -149.80648507271928, 57.629090629182116, 62.54409314872487 
-110.1778652438995, 17.87570577736884, 22.2419968723914, -150.57616078311187, 57.41305433405472, 62.54629734090977 
-111.0787898811035, 17.521098342499283, 22.24249906049234, -151.34298559443184, 57.19875881620071, 62.5484916567444 
-111.97862590886515, 17.168075802018034, 22.242990344662697, -152.10705291867814, 56.986235889451976, 62.550675460403305 
-112.87745321875843, 16.816722888335043, 22.243470649639686, -152.868453192547, 56.77551684764751, 62.552848123864784 
-113.77535026394023, 16.46712377192708, 22.243939912142107, -153.62727397992236, 56.56663247740318, 62.55500902705237 
-114.67239403743723, 16.119362071465147, 22.244398080788592, -154.38360007043025, 56.3596130701169, 62.55715755796827 
-115.56866005122032, 15.773520863056287, 22.244845116001816, -155.1375135742116, 56.15448843324624, 62.5592931128189 
-116.46422231599605, 15.42968268857613, 22.245280989898806, -155.88909401306324, 55.95128790089355, 62.561415096132635 
-117.35915332165374, 15.08792956306969, 22.245705686167597, -156.63841840809366, 55.75004034373202, 62.563522920869694 
-118.25352401831192, 14.748342981200068, 22.24611919993035, -157.385561364034, 55.550774178304636, 62.565616008524415 
-119.14740379791543, 14.411003922725817, 22.24652153759316, -158.13059515034266, 55.353517375725964, 62.56769378921948 
-120.0408604763399, 14.075992856989838, 22.24691271668279, -158.87358977923427, 55.15829746981586, 62.56975570179308 
-120.93396027596802, 13.743389746403723, 22.247292765670597, -159.61461308076315, 54.965141564692225, 62.57180119387805 
-121.8267678087064, 13.413274048913392, 22.247661723783864, -160.35373077508316, 54.77407634184922, 62.573829721973766 
-122.71934605941946, 13.085724719433149, 22.248019640804806, -161.09100654200446, 54.585128066745405, 62.57584075151076 
-123.611756369761, 12.76082021023689, 22.248366576857567, -161.82650208796127, 54.39832259492583, 62.57783375690794 
-124.50405842239144, 12.438638470296736, 22.248702602183513, -162.56027721050233, 54.213685377700585, 62.57980822162285 
-125.39631022557232, 12.119256943560869, 22.24902779690508, -163.29238986040968, 54.031241467401124, 62.58176363819476 
-126.2885680981366, 11.802752566163928, 22.249342250778586, -164.022896201549, 53.85101552223537, 62.5836995082809 
-127.18088665483764, 11.489201762564822, 22.249646062936264, -164.75185066855002, 53.673031810760776, 62.585615342686104 
-128.07331879208456, 11.1786804406086, 22.249939341617917, -165.47930602241132, 53.49731421599447, 62.58751066138554 
-128.96591567407765, 10.871263985510323, 22.25022220389261, -166.20531340412143, 53.323886239178265, 62.58938499354132 
-129.85872671936016, 10.567027252761013, 22.25049477537064, -166.9299223863828, 53.152771003215534, 62.591237877512576 
-130.75179958780987, 10.266044559956917, 22.250757189906302, -167.6531810235231, 52.98399125579677, 62.593068860859404 
-131.64518016809546, 9.968389677555628, 22.25100958929186, -168.37513589967438, 52.81756937222909, 62.5948775003409 
-132.5389125656294, 9.674135818563855, 22.25125212294298, -169.0958321752972, 52.653527357985126, 62.596663361907325 
-133.43303909105063, 9.383355627163926, 22.251484947576234, -169.8153136321241, 52.49188685098545, 62.59842602068657 
-134.32760024927592, 9.09612116628774, 22.251708226878993, -170.533622716593, 52.33266912362858, 62.60016506096538 
-135.22263472916143, 8.81250390414877, 22.25192213117222, -171.25080058183968, 52.1758950845817, 62.601880076165024 
-136.11817939381962, 8.532574699744892, 22.25212683706652, -171.96688712831374, 52.021585280345015, 62.60357066881205 
-137.0142692716389, 8.256403787346771, 22.25232252711204, -172.68192104308113, 51.86975989660185, 62.60523645050412 
-137.9109375480581, 7.984060759988409, 22.25250938944254, -173.39593983787287, 51.72043875936645, 62.60687704187113 
-138.80821555814867, 7.715614551978799, 22.252687617414228, -174.10897988593862, 51.573641335940586, 62.6084920725319 
-139.7061327800608, 7.451133420455822, 22.252857409239777, -174.82107645775818, 51.42938673569016, 62.610081181046525 
-140.60471682939158, 7.190684926005284, 22.253018967618008, -175.532263755666, 51.2876937106521, 62.61164401486451 
-141.503993454535, 6.934335912370847, 22.25317249935977, -176.24257494743745, 51.148580655981874, 62.61318023026953 
-142.40398653307577, 6.682152485282276, 22.253318215010466, -176.95204219888612, 51.01206561025112, 62.6146894923199 
-143.30471806928915, 6.434199990432019, 22.253456328469774, -177.6606967055184, 50.87816625560518, 62.61617147478605 
-144.20620819281115, 6.1905429906323315, 22.253587056609007, -178.36856872328977, 50.74689991778919, 62.61762586008475 
-145.10847515854297, 5.95124524218745, 22.253710618886668, -179.0756875985051, 50.618283566051964, 62.61905233921013 
-146.0115353478546, 5.716369670517616, 22.253827236962696, -179.7820817969038, 50.492333812935755, 62.62045061166211 
-146.9154032711527, 5.485978345074029, 22.253937134311922, 179.51222106803093, 50.36906691396025, 62.62182038537231 
-147.82009157187662, 5.260132453586178, 22.25404053583718, 178.80719420750214, 50.2484987672089, 62.62316137662737 
-148.7256110319865, 5.038892275685068, 22.25413766748268, 178.10281163053185, 50.1306449128247, 62.62447330999063 
-149.6319705790059, 4.82231715594834, 22.254228755848118, 177.3990481177631, 50.01552053242347, 62.62575591822147 
-150.53917729468083, 4.610465476415208, 22.254314027803982, 176.6958791958978, 49.90314044843123, 62.62700894219332 
-151.44723642531375, 4.403394628621478, 22.25439371010866, 175.99328111273988, 49.79351912335298, 62.62823213081014 
-152.35615139383066, 4.201160985206821, 22.25446802902775, 175.291230812813, 49.68667065897922, 62.629425240921506 
-153.26592381363568, 4.003819871148591, 22.254537209956144, 174.5897059135247, 49.582608795537126, 62.6305880372372 
-154.1765535043052, 3.8114255346783175, 22.254601477043384, 173.88868468184887, 49.481346910792176, 62.63172029224042 
-155.08803850917064, 3.624031117938792, 22.254661052822765, 173.18814601150112, 49.38289801910646, 62.63282178610108 
-156.00037511483464, 3.4416886274414438, 22.254716157844644, 172.48806940058088, 49.28727477045974, 62.63389230658819 
-156.91355787266187, 3.264448904385285, 22.254767010314517, 171.788434929657, 49.19448944943845, 62.63493164898264 
-157.82757962228197, 3.092361594900003, 22.254813825736285, 171.089223240273, 49.1045539741986, 62.63593961598973 
-158.7424315171361, 2.9254751202773486, 22.254856816561183, 170.39041551385068, 49.01747989540746, 62.6369160176521 
-159.65810305209556, 2.7638366472558356, 22.254896191842857, 169.69199345097027, 48.933278395169275, 62.637860671263375 
-160.5745820931737, 2.6074920584249934, 22.254932156899045, 168.99393925100708, 48.85196028594005, 62.63877340128229 
-161.4918549093484, 2.4564859228160985, 22.254964912980306, 168.29623559210532, 48.77353600943587, 62.639654039247766 
-162.40990620650595, 2.3108614667469918, 22.25499465694618, 167.5988656114706, 48.69801563553957, 62.640502423695224 
-163.3287191635107, 2.1706605449889436, 22.255021580949347, 166.9018128859629, 48.62540886120994, 62.64131840007408 
-164.24827547040024, 2.0359236123238884, 22.25504587212805, 166.20506141297335, 48.55572500939787, 62.64210182066682 
-165.1685553686969, 1.9066896955602712, 22.25506771230725, 165.5085955915683, 48.48897302797336, 62.642852544509715 
-166.08953769382236, 1.7829963660756183, 22.255087277708963, 164.8124002038849, 48.425161488667364, 62.64357043731535 
-167.01119991959376, 1.6648797129533917, 22.25510473867207, 164.116460396763, 48.364298586032135, 62.644255371397136 
-167.9335182047735, 1.5523743167812503, 22.255120259382043, 163.42076166359968, 48.30639213642365, 62.644907225596285 
-168.85646744163756, 1.4455132241767865, 22.25513399761087, 162.72528982641117, 48.25144957700956, 62.64552588521057 
-169.78002130652172, 1.344327923105706, 22.25514610446765, 162.03003101809017, 48.19947796480584, 62.64611124192635 
-170.70415231229558, 1.2488483190562165, 22.255156724160038, 161.33497166484483, 48.15048397574522, 62.64666319375235 
-171.6288318627102, 1.1591027121315784, 22.25516599376696, 160.64009846880728, 48.1044739037804, 62.64718164495712 
-172.55403030855607, 1.0751177751211336, 22.255174043022862, 159.94539839079997, 48.06145366002471, 62.64766650600871 
-173.47971700556326, 0.9969185326079922, 22.255180994113786, 159.250858633248, 48.02142877193278, 62.64811769351777 
-174.405860373968, 0.9245283411692444, 22.25518696148557, 158.5564666232266, 47.98440438252385, 62.64853513018367 
-175.33242795966353, 0.8579688707221685, 22.25519205166432, 157.86220999563298, 47.95038524964975, 62.64891874474409 
-176.25938649684835, 0.7972600870670772, 22.2551963630896, 157.1680765764718, 47.919375745309864, 62.64926847192766 
-177.1867019720772, 0.7424202356745285, 22.255199985960278, 156.47405436624476, 47.89137985501492, 62.649584252410506 
-178.11433968961626, 0.6934658267616086, 22.255203002093573, 155.78013152343385, 47.8664011772015, 62.64986603277587 
-179.0422643379981, 0.6504116216985469, 22.255205484797113, 155.08629634806957, 47.84444292269876, 62.65011376547806 
-179.97044005766708, 0.6132706207834707, 22.25520749875454, 154.3925372653738, 47.82550791424908, 62.65032740880938 
179.1011694903978, 0.582054052419596, 22.2552090999245, 153.69884280946889, 47.809598586083645, 62.65050692687161 
178.1726010552008, 0.5567713637250616, 22.255210335453437, 153.00520160714393, 47.796716983554525, 62.650652289550614 
177.24389172550846, 0.5374302126020412, 22.255211243601984, 152.31160236166954, 47.786864762823804, 62.65076347249558 
176.3150788590138, 0.524036461287416, 22.25521185368544, 151.61803383665202, 47.780043190610954, 62.65084045710171 
175.3862000110128, 0.5165941714033854, 22.255212186028025, 150.92448483991933, 47.776253143999014, 62.650883230497065 
174.4572928627208, 0.5151056005219614, 22.25521225193124, 150.23094420742942, 47.77549511029999, 62.65089178553361 
173.5283951493597, 0.5195712002532161, 22.255212053656255, 149.53740078719343, 47.77776918698004, 62.650866120781934 
172.59954458814653, 0.5299896158626216, 22.25521158442042, 148.84384342320496, 47.783075081644455, 62.650806240530365 
171.67077880631467, 0.5463576874187073, 22.255210828407794, 148.15026093936723, 47.791412112082625, 62.65071215478807 
170.74213526929967, 0.5686704524675823, 22.25520976079379, 147.4566421234101, 47.802779206372776, 62.650583879291986 
169.81365120921924, 0.596921150226926, 22.25520834778384, 146.76297571078803, 47.81717490304621, 62.65042143551804 
168.88536355377775, 0.631101227287337, 22.255206546666095, 146.0692503685514, 47.834597351310606, 62.65022485069634 
167.9573088557222, 0.6712003448050116, 22.25520430587796, 145.37545467918187, 47.85504431133191, 62.649994157830115 
167.02952322297526, 0.7172063871652905, 22.255201565086526, 144.6815771243842, 47.878513154573774, 62.64972939571902 
166.10204224956792, 0.7691054720927412, 22.25519825528268, 143.98760606882482, 47.90500086419394, 62.64943060898585 
165.17490094749093, 0.8268819621791934, 22.255194298888856, 143.29352974380902, 47.9345040354962, 62.64909784810754 
164.2481336795807, 0.8905184777975811, 22.25518960988021, 142.59933623088784, 47.96701887643696, 62.64873116944959 
163.3217740935509, 0.9599959113654285, 22.255184093919055, 141.90501344538464, 48.00254120818476, 62.648330635304404 
162.39585505727663, 1.035293442918487, 22.25517764850251, 141.2105491198329, 48.04106646573139, 62.64789631393319 
161.47040859543276, 1.1163885569514778, 22.25517016312294, 140.51593078731497, 48.08258969855268, 62.64742827961123 
160.54546582758292, 1.2032570604797426, 22.2551615194412, 139.82114576469215, 48.12710557131737, 62.646926612677056 
159.62105690781033, 1.2958731022725156, 22.2551515914723, 139.12618113571543, 48.17460836464167, 62.64639139958436 
158.69721096597456, 1.3942091932058143, 22.255140245783323, 138.43102373400694, 48.2250919758876, 62.64582273295752 
157.77395605067346, 1.4982362276802612, 22.255127341703272, 137.73566012590064, 48.27854992000263, 62.64522071165023 
156.85131907398207, 1.6079235060466353, 22.25511273154466, 137.04007659313112, 48.334975330398045, 62.644585440806836 
155.92932575803442, 1.7232387579800976, 22.255096260836442, 136.3442591153591, 48.39436095986356, 62.64391703192698 
155.00800058350706, 1.844148166741771, 22.255077768568018, 135.64819335252096, 48.45669918151508, 62.64321560293239 
154.08736674005604, 1.9706163942647974, 22.255057087444065, 134.9518646269901, 48.52198198977278, 62.64248127823678 
153.1674460787531, 2.1026066070005656, 22.25503404414974, 134.25525790553675, 48.59020100136644, 62.64171418881783 
152.2482590665586, 2.2400805024594868, 22.2550084596259, 133.55835778107314, 48.66134745636437, 62.64091447229154 
151.3298247428635, 2.382998336379672, 22.254980149354168, 132.86114845416884, 48.735412219222844, 62.64008227298878 
150.41216067812368, 2.5313189504562312, 22.25494892365118, 132.16361371432282, 48.81238577985212, 62.639217742033566 
149.4952829346055, 2.684999800563276, 22.25491458797184, 131.46573692097562, 48.892258254695385, 62.63832103742323 
148.5792060292527, 2.8439969854003846, 22.254876943221095, 130.76750098424637, 48.97501938781658, 62.63739232411023 
147.66394289867984, 3.0082652754952814, 22.254835786073883, 130.06888834537773, 49.060658551992994, 62.63643177408516 
146.74950486629024, 3.1777581424945427, 22.25479090930261, 129.36988095687147, 49.149164749808335, 62.635439566461244 
145.83590161151025, 3.3524277886745475, 22.254742102112143, 128.67046026229573, 49.240526614741746, 62.63441588755955 
144.9231411411268, 3.53222517660529, 22.254689150481408, 127.97060717574632, 49.334732412248215, 62.6333609309952 
144.0112297627076, 3.7171000589005683, 22.25463183751144, 127.27030206094076, 49.431770040825434, 62.632274897764226 
143.10017206008033, 3.9070010079887934, 22.2545699437794, 126.56952470992584, 49.53162703306217, 62.63115799633077 
142.18997087083994, 4.101875445839922, 22.254503247697905, 125.8682543213755, 49.634290556663, 62.63001044271444 
141.2806272658502, 4.301669673585034, 22.25443152587944, 125.16646947845784, 49.73974741544395, 62.628832460577776 
140.37214053069954, 4.506328900966671, 22.254354553505163, 124.46414812624684, 49.8479840502936, 62.62762428131339 
139.46450814906856, 4.715797275559353, 22.25427210469778, 123.76126754865457, 49.958986540093754, 62.62638614413091 
138.55772578796186, 4.93001791170163, 22.254183952897886, 123.0578043448578, 50.072740602593825, 62.62511829614284 
137.65178728475396, 5.148932919082397, 22.254089871243302, 122.35373440519247, 50.1892315952329, 62.623820992450014 
136.74668463599582, 5.372483430926376, 22.253989632950955, 121.64903288648782, 50.30844451590278, 62.62249449622568 
135.84240798792538, 5.6006096317256135, 22.25388301170072, 120.94367418681057, 50.43036400364582, 62.621139078798294 
134.9389456286248, 5.833250784465527, 22.25376978202076, 120.23763191958909, 50.55497433928043, 62.61975501973292 
134.03628398176218, 6.0703452572966405, 22.253649719673906, 119.53087888708482, 50.68225944594752, 62.61834260691069 
133.13440760185807, 6.311830549604864, 22.253522602044416, 118.82338705317808, 50.81220288957031, 62.61690213660646 
132.23329917101094, 6.5576433174357245, 22.253388208524797, 118.11512751543296, 50.94478787922021, 62.61543391356408 
131.33293949702008, 6.807719398229829, 22.25324632090197, 117.40607047640499, 51.07999726738089, 62.61393825106932 
130.43330751283915, 7.061993834829585, 22.253096723742505, 116.69618521415326, 51.21781355010256, 62.61241547102019 
129.53438027729734, 7.320400898718949, 22.252939204776162, 115.98544005191746, 51.35821886703797, 62.61086590399421 
128.63613297702213, 7.582874112460791, 22.25277355527744, 115.27380232691779, 51.50119500135183, 62.60928988931279 
127.7385389295005, 7.849346271298342, 22.252599570444517, 114.56123835823477, 51.646723379494276, 62.60768777510216 
126.84156958721483, 8.119749463889677, 22.252417049775115, 113.84771341372323, 51.79478507082956, 62.60605991835083 
125.9451945427913, 8.39401509214663, 22.25222579743875, 113.13319167591325, 51.94536078711008, 62.6044066849631 
125.04938153510018, 8.672073890151244, 22.252025622644993, 112.41763620684858, 52.0984308817859, 62.602728449808964 
124.1540964562488, 8.953855942125898, 22.25181634000706, 111.70100891181077, 52.25397534913953, 62.60102559676944 
123.2593033594102, 9.239290699434555, 22.251597769900428, 110.9832705018752, 52.41197382323502, 62.59929851877793 
122.36496446743246, 9.528306996595637, 22.251369738815928, 110.26438045524264, 52.57240557667057, 62.59754761785644 
121.47104018217667, 9.820833066288309, 22.251132079706814, 109.54429697728776, 52.73524951912271, 62.59577330514772 
120.57748909453339, 10.116796553336822, 22.25088463232939, 108.82297695926283, 52.900484195670415, 62.59397600094172 
119.68426799507202, 10.416124527658937, 22.250627243576744, 108.10037593559336, 53.068087784886295, 62.59215613469733 
118.7913318852783, 10.718743496166967, 22.250359767805094, 107.37644803969805, 53.23803809668209, 62.590314145058514 
117.8986339893413, 11.024579413611615, 22.25008206715235, 106.65114595826417, 53.4103125698948, 62.588450479865124 
117.00612576645285, 11.333557692360708, 22.249794011848493, 105.92442088390551, 53.584888269599325, 62.58656559615758 
116.1137569235871, 11.645603211107126, 22.249495480517275, 105.19622246612686, 53.76174188413285, 62.584659960176225 
115.22147542873181, 11.960640322501387, 22.24918636046885, 104.46649876051679, 53.94084972181566, 62.582734047354016 
114.32922752454725, 12.278592859706922, 22.248866547983017, 103.73519617608558, 54.12218770735224, 62.58078834230343 
113.43695774243288, 12.599384141876971, 22.24853594858261, 103.0022594206638, 54.30573137789591, 62.57882333879668 
112.54460891698619, 12.922936978554512, 22.248194477296668, 102.26763144427096, 54.491455878759545, 62.57683953973964 
111.65212220084408, 13.249173672997532, 22.24784205891307, 101.53125338036241, 54.679335958753875, 62.57483745713889 
110.75943707990024, 13.578016024434223, 22.247478628220243, 100.79306448485733, 54.8693459651343, 62.57281761206202 
109.86649138889881, 13.909385329253828, 22.24710413023766, 100.05300207284704, 55.061459838135995, 62.57078053459101 
108.97322132740877, 14.24320238114055, 22.246718520434676, 99.3110014528798, 55.25565110507648, 62.56872676376853 
108.07956147618916, 14.579387470159652, 22.24632176493762, 98.56699585871229, 55.4518928740033, 62.56665684753697 
107.18544481396101, 14.91786038080606, 22.245913840724626, 97.82091637841616, 55.65015782686392, 62.5645713426703 
106.29080273460741, 15.258540389027758, 22.245494735808048, 97.07269188072148, 55.850418212173395, 62.56247081469849 
105.395565064829, 15.601346258237168, 22.245064449404165, 96.32224893847633, 56.05264583715453, 62.56035583782432 
104.49966008228807, 15.946196234326068, 22.244622992089933, 95.5695117490962, 56.2568120593236, 62.55822699483281 
