# MEX_intpoint_lon [deg], MEX_intpoint_lat [deg], MEX_intpoint_angle [deg], TGO_intpoint_lon [deg], TGO_intpoint_lat [deg], TGO_intpoint_angle [deg] 
-103.68718673464038, 20.360054146888775, 22.153817829251803, -140.87354664974825, 58.7987470461835, 62.53301445968216 
-104.60057679672194, 20.001274473938995, 22.154382976055032, -141.65366544052023, 58.56835840584093, 62.53531722980104 
-105.51228741565882, 19.643445809764273, 22.15493836676513, -142.43038363947198, 58.33955995292446, 62.53761380947005 
-106.42240599069706, 19.286656610019378, 22.15548384385783, -143.20381470282518, 58.1123866950488, 62.539903503714754 
-107.33101871785473, 18.930994681366645, 22.156019261618187, -143.9740683263649, 57.88687303912771, 62.54218562468531 
-108.23821055898541, 18.576547195942215, 22.156544486160115, -144.74125058187354, 57.66305280939845, 62.54445949184952 
-109.14406521234866, 18.22340070520319, 22.157059395431684, -145.5054640480825, 57.44095926439701, 62.54672443217726 
-110.04866508456833, 17.871641153117412, 22.157563879206126, -146.26680793635467, 57.220625112936716, 62.54897978031662 
-110.95209126386928, 17.521353888659466, 22.15805783905874, -147.02537821130926, 57.0020825291402, 62.5512248787619 
-111.85442349448853, 17.17262367757925, 22.158541188329643, -147.78126770659185, 56.7853631665722, 62.55345907801288 
-112.75574015216601, 16.825534713410903, 22.159013852072547, -148.53456623598916, 56.57049817151783, 62.55568173672618 
-113.65611822062544, 16.480170627692555, 22.15947576698959, -149.28536070008062, 56.357518195448996, 62.557892221858054 
-114.55563326896423, 16.13661449936876, 22.159926881352423, -150.03373518861355, 56.14645340671944, 62.56008990879868 
-115.45435942987771, 15.794948863349578, 22.1603671549096, -150.77977107878235, 55.93733350152633, 62.562274181498694 
-116.3523693786494, 15.455255718202146, 22.160796558780543, -151.52354712958564, 55.73018771417506, 62.56444443258698 
-117.24973431284629, 15.11761653295181, 22.161215075336145, -152.2651395724304, 55.52504482668131, 62.56660006348056 
-118.14652393266407, 14.782112252972425, 22.161622698066232, -153.00462219814403, 55.32193317774354, 62.56874048448629 
-119.04280642187402, 14.448823304946037, 22.16201943143414, -153.74206644055144, 55.120880671116474, 62.570865114894545 
-119.9386484293285, 14.11782960087462, 22.162405290718574, -154.47754145676657, 54.92191478341535, 62.572973383064785 
-120.83411505098992, 13.789210541127629, 22.16278030184293, -155.2111142043435, 54.72506257137905, 62.57506472650347 
-121.72926981245139, 13.463045016510858, 22.16314450119246, -155.942849515425, 54.53035067861831, 62.57713859193398 
-122.62417465192534, 13.139411409343568, 22.163497935419468, -156.6728101680228, 54.33780534187497, 62.5791944353589 
-123.51888990368043, 12.818387593532488, 22.163840661236776, -157.4010569545562, 54.14745239681583, 62.58123172211481 
-124.4134742819135, 12.50005093363277, 22.164172745199828, -158.1276487477733, 53.95931728338452, 62.58324992691951 
-125.30798486504779, 12.184478282887419, 22.164494263477728, -158.85264256417068, 53.77342505073289, 62.58524853391206 
-126.20247708045446, 11.871745980238657, 22.164805301613402, -159.57609362502595, 53.589800361753134, 62.587227036685306 
-127.09700468959933, 11.561929846305658, 22.165105954273525, -160.29805541514995, 53.40846749723021, 62.58918493831185 
-127.99161977362084, 11.255105178325392, 22.165396324988098, -161.018579739463, 53.22945035963388, 62.59112175136258 
-128.88637271935116, 10.951346744054355, 22.165676525880535, -161.73771677749392, 53.0527724765681, 62.59303699791891 
-129.78131220579584, 10.650728774631032, 22.165946677388167, -162.45551513589658, 52.87845700389557, 62.594930209578074 
-130.67648519109244, 10.353324956400357, 22.166206907973976, -163.1720218990754, 52.70652672855353, 62.59680092745218 
-131.57193689997163, 10.059208421703435, 22.16645735382949, -163.88728267800613, 52.53700407107702, 62.59864870216111 
-132.4677108117505, 9.768451738637308, 22.16669815856972, -164.60134165733578, 52.3699110878445, 62.6004730938191 
-133.36384864888834, 9.481126899791533, 22.16692947292012, -165.31424164084052, 52.205269473060675, 62.602273672015635 
-134.26039036614213, 9.197305309970197, 22.167151454396297, -166.02602409531855, 52.0431005604901, 62.6040500157906 
-135.15737414035976, 8.917057772909736, 22.167364266976765, -166.73672919299023, 51.88342532495523, 62.60580171360397 
-136.05483636095397, 8.640454477005013, 22.167568080769172, -167.4463958524755, 51.726264383611614, 62.607528363300126 
-136.95281162110172, 8.367564980058138, 22.16776307167047, -168.15506177841488, 51.57163799701256, 62.609229572067214 
-137.85133270971727, 8.098458193066364, 22.16794942102158, -168.86276349979818, 51.41956606997517, 62.61090495639157 
-138.75043060424963, 7.833202363067454, 22.16812731525677, -169.56953640706172, 51.270068152259164, 62.61255414200746 
-139.6501344643569, 7.571865055063351, 22.168296945548505, -170.275414788012, 51.1231634390693, 62.614176763842366 
-140.55047162651243, 7.3145131330445405, 22.16845850744801, -170.9804318626323, 50.97887077139218, 62.61577246595815 
-141.45146759959948, 7.061212740140218, 22.168612200522126, -171.68461981682458, 50.83720863617744, 62.61734090148824 
-142.3531460615523, 6.81202927792114, 22.16875822798699, -172.38800983513846, 50.69819516637323, 62.61888173257081 
-143.2555288571031, 6.567027384884465, 22.16889679633883, -173.09063213253512, 50.56184814082549, 62.620394630278696 
-144.15863599669467, 6.326270914151949, 22.16902811498264, -173.7925159852337, 50.42818498404992, 62.6218792745459 
-145.06248565661986, 6.089822910415264, 22.169152395858983, -174.49368976068362, 50.2972227658858, 62.62333535409099 
-145.96709418044875, 5.85774558616424, 22.169269853069558, -175.1941809467058, 50.16897820103997, 62.62476256633763 
-146.87247608180468, 5.630100297236055, 22.169380702501986, -175.89401617984433, 50.04346764852919, 62.626160617332694 
-147.77864404854913, 5.406947517725826, 22.169485161454254, -176.59322127296525, 49.92070711102893, 62.62752922166176 
-148.6856089484369, 5.188346814300785, 22.169583448259456, -177.29182124214233, 49.800712234136356, 62.62886810236264 
-149.5933798362986, 4.974356819962866, 22.16967578191116, -177.98984033286303, 49.68349830555458, 62.63017699083701 
-150.5019639628097, 4.765035207306142, 22.16976238169002, -178.6873020455901, 49.569080254205964, 62.631455626760285 
-151.41136678490096, 4.560438661317987, 22.16984346679207, -179.38422916071033, 49.45747264928091, 62.63270375799004 
-152.32159197786441, 4.360622851774486, 22.16991925595921, 179.9193562370978, 49.348689699229176, 62.6339211404736 
-153.23264144920591, 4.165642405282753, 22.169989967112333, 179.2234327350485, 49.242745250700075, 62.63510753815419 
-154.1445153542934, 3.975550877024523, 22.170055816987652, 178.52797956895665, 49.13965278743815, 62.63626272287661 
-155.0572121138456, 3.790400722257077, 22.17011702077668, 177.8329766004417, 49.03942542913997, 62.63738647429248 
-155.9707284333041, 3.6102432676292375, 22.170173791770235, 177.13840429460257, 48.94207593027839, 62.63847857976514 
-156.88505932412554, 3.4351286823716904, 22.17022634100714, 176.4442436981381, 48.84761667889984, 62.639538834274504 
-157.8001981270299, 3.2651059494221344, 22.170274876927916, 175.75047641788947, 48.756059695399934, 62.64056704032208 
-158.71613653723279, 3.100222836547138, 22.170319605033963, 175.05708459978237, 48.667416631283245, 62.64156300783669 
-159.63286463168808, 2.94052586752353, 22.1703607275528, 174.3640509081466, 48.58169876791186, 62.64252655408014 
-160.5503708983598, 2.7860602934431595, 22.170398443109548, 173.6713585053933, 48.49891701524802, 62.64345750355467 
-161.46864226753857, 2.6368700642056364, 22.17043294640542, 172.97899103202917, 48.4190819105956, 62.64435568791066 
-162.3876641452114, 2.4929978002640913, 22.170464427903365, 172.28693258698917, 48.34220361734496, 62.645220945856025 
-163.30742044848836, 2.3544847646895786, 22.17049307352139, 171.59516770826986, 48.2682919237257, 62.64605312306694 
-164.22789364308363, 2.2213708356197146, 22.170519064334055, 170.9036813538452, 48.197356241571626, 62.64685207210017 
-165.1490647828419, 2.093694479157437, 22.17054257628235, 170.21245888284938, 48.12940560510191, 62.647617652307375 
-166.07091355129546, 1.9714927227851842, 22.17056377989251, 169.52148603700954, 48.06444866972264, 62.64834972975147 
-166.9934183052303, 1.854801129359684, 22.170582840004013, 168.8307489223142, 48.00249371085225, 62.6490481771249 
-167.91655612023365, 1.7436537717516736, 22.170599915507207, 168.14023399090226, 47.94354862277473, 62.649712873670744 
-168.840302838188, 1.6380832081941943, 22.170615159090882, 167.44992802315863, 47.88762091752389, 62.650343705106 
-169.7646331166711, 1.5381204584017578, 22.17062871700013, 166.75981811000324, 47.834717723802065, 62.65094056354791 
-170.6895204802141, 1.4437949805216475, 22.17064072880476, 166.06989163536014, 47.784845785936355, 62.651503347442834 
-171.6149373733633, 1.3551346489768257, 22.17065132717871, 165.38013625879498, 47.73801146287542, 62.65203196149849 
-172.5408552154858, 1.27216573325836, 22.170660637690563, 164.69053989830812, 47.694220727229556, 62.65252631661891 
-173.46724445725127, 1.1949128777230662, 22.17066877860562, 164.00109071327242, 47.65347916435683, 62.652986329843436 
-174.394074638717, 1.1233990824501208, 22.17067586069968, 163.31177708750454, 47.61579197149763, 62.65341192428819 
-175.32131444893767, 1.057645685207758, 22.170681987084823, 162.6225876124588, 47.581163956960026, 62.653803029091904 
-176.2489317870141, 0.9976723445786599, 22.17068725304741, 161.93351107053357, 47.549599539358105, 62.65415957936507 
-177.17689382449115, 0.9434970242898131, 22.170691745898527, 161.24453641848004, 47.52110274690528, 62.65448151614276 
-178.10516706900907, 0.8951359787895982, 22.170695544837045, 160.55565277090358, 47.4956772167644, 62.654768786341506 
-179.03371742910792, 0.8526037401117004, 22.170698720825538, 159.86684938384812, 47.47332619445622, 62.65502134272009 
-179.96251028007956, 0.8159131060620284, 22.170701336479144, 159.178115638455, 47.45405253332816, 62.65523914384434 
179.1084894692414, 0.785075129761449, 22.170703445967597, 158.48944102468627, 47.43785869408405, 62.65542215405598 
178.17931730886085, 0.7600991105733801, 22.170705094930458, 157.80081512510452, 47.424746744376655, 62.65557034344568 
177.25000905929934, 0.7409925864416135, 22.170706320405802, 157.11222759870034, 47.4147183584637, 62.655683687830454 
176.32060080267573, 0.7277613276597708, 22.17070715077231, 156.42366816475857, 47.40777481692825, 62.65576216873502 
175.39112881332193, 0.7204093320899538, 22.17070760570496, 155.73512658675565, 47.40391700646427, 62.655805773377885 
174.46162948805272, 0.7189388218440025, 22.170707696144245, 155.0465926562792, 47.403145419727814, 62.655814494661385 
173.5321392762149, 0.723350241436685, 22.17070742427911, 154.35805617696184, 47.40546015525423, 62.65578833116624 
172.60269460964196, 0.7336422574161036, 22.170706783543558, 153.66950694842146, 47.41086091744161, 62.65572728715051 
171.6733318326403, 0.7498117594722756, 22.170705758626863, 152.98093475019903, 47.419347016600476, 62.65563137255287 
170.74408713213285, 0.7718538630208112, 22.17070432549751, 152.2923293256864, 47.430917369069576, 62.65550060300014 
169.8149964680861, 0.7997619132544043, 22.170702451440718, 151.60368036603595, 47.44557049739764, 62.65533499981948 
168.88609550434367, 0.8335274906506945, 22.170700095109606, 150.91497749404311, 47.46330453059045, 62.65513459005442 
167.9574195399905, 0.8731404179210855, 22.170697206589743, 150.22621024799466, 47.484117204422695, 62.65489940648567 
167.02900344136637, 0.9185887683809449, 22.170693727477303, 149.53736806547306, 47.50800586181389, 62.65462948765583 
166.10088157484824, 0.9698588757178594, 22.170689590970326, 148.84844026710934, 47.534967453267335, 62.6543248778985 
165.17308774051443, 1.0269353451306586, 22.170684721973416, 148.15941604027535, 47.56499853737098, 62.653985627371284 
164.24565510680324, 1.089801065808338, 22.170679037215244, 147.4702844227062, 47.59809528135912, 62.653611792093265 
163.3186161462723, 1.1584372247142816, 22.170672445379196, 146.78103428604456, 47.63425346173316, 62.653203433986 
162.3920025725614, 1.232823321637948, 22.170664847246574, 146.09165431929688, 47.67346846494021, 62.652760620918805 
161.4658452786578, 1.3129371854727887, 22.170656135852415, 145.40213301219214, 47.71573528810747, 62.652283426757656 
160.5401742765558, 1.3987549916760824, 22.170646196653635, 144.71245863843325, 47.76104853983067, 62.65177193141773 
159.61501863839933, 1.49025128086356, 22.17063490770928, 144.02261923883108, 47.80940244101435, 62.65122622091994 
158.69040643918873, 1.5873989784888032, 22.170622139872616, 143.3326026043101, 47.86079082576188, 62.65064638745049 
157.7663647011285, 1.690169415555065, 22.17060775699489, 142.64239625877553, 47.9152071423126, 62.650032529423996 
156.84291933968555, 1.7985323503047053, 22.170591616140378, 141.95198744182994, 47.97264445402382, 62.64938475155006 
155.92009511142206, 1.9124559908294483, 22.170573567812525, 141.26136309132804, 48.03309544039458, 62.648703164902464 
154.99791556366003, 2.0319070185426664, 22.170553456190845, 140.57050982575734, 48.09655239812858, 62.647987886991764 
154.07640298602894, 2.1568506124534, 22.170531119378232, 139.87941392643228, 48.163007242233135, 62.64723904184047 
153.15557836393995, 2.2872504741802206, 22.170506389658442, 139.18806131948799, 48.2324515071508, 62.64645676006087 
152.2354613340253, 2.423068853641998, 22.170479093763266, 138.49643755766093, 48.30487634792056, 62.64564117893531 
151.3160701415738, 2.5642665753614753, 22.170449053149223, 137.80452780184137, 48.38027254136476, 62.64479244249903 
150.39742159998647, 2.710803065316989, 22.17041608428323, 137.112316802383, 48.45863048729825, 62.64391070162469 
149.47953105227168, 2.8626363782769735, 22.17037999893695, 136.4197888801544, 48.53994020975579, 62.64299611410919 
148.56241233459036, 3.019723225551662, 22.17034060448951, 135.72692790731563, 48.62419135823378, 62.64204884476212 
147.64607774185794, 3.1820190030962023, 22.170297704237985, 135.03371728780346, 48.71137320894193, 62.64106906549579 
146.73053799540202, 3.349477819899562, 22.17025109771541, 134.34013993750716, 48.80147466606074, 62.64005695541658 
145.8158022126695, 3.522052526593942, 22.170200581015862, 133.64617826411677, 48.89448426299999, 62.63901270091744 
144.90187787897185, 3.69969474421967, 22.170145947126148, 132.95181414662386, 48.990390163653714, 62.637936495771484 
143.98877082125006, 3.8823548930815344, 22.17008698626365, 132.25702891445513, 49.08918016364673, 62.636828541226144 
143.07648518383812, 4.06998222163305, 22.17002348621991, 131.56180332621747, 49.1908416915676, 62.63568904609793 
142.16502340619655, 4.262524835326422, 22.16995523270957, 130.86611754803235, 49.295361810182804, 62.634518226867435 
141.25438620258484, 4.459929725366822, 22.169882009724002, 130.16995113143636, 49.40272721762673, 62.633316307774585 
140.3445725436361, 4.662142797311283, 22.1698035998894, 129.47328299082398, 49.51292424856186, 62.632083520913525 
139.43557963979416, 4.869108899453521, 22.169719784828693, 128.77609138040663, 49.62593887530323, 62.63082010632722 
138.5274029265688, 5.080771850937909, 22.1696303455269, 128.07835387066248, 49.74175670890133, 62.62952631210163 
137.62003605156295, 5.297074469547319, 22.16953506269932, 127.38004732424831, 49.86036300017717, 62.62820239445869 
136.71347086322106, 5.5179585991112265, 22.169433717162274, 126.68114787134517, 49.98174264070293, 62.62684861784849 
135.807697401246, 5.743365136482686, 22.169326090205672, 125.98163088440721, 50.105880163721956, 62.62546525504018 
134.9027038886307, 5.97323405803426, 22.169211963967072, 125.28147095228186, 50.232759745000685, 62.6240525872111 
133.99847672524623, 6.207504445625333, 22.169091121806755, 124.58064185366851, 50.362365203606075, 62.62261090403431 
133.0950004829297, 6.4461145119951535, 22.168963348683114, 123.87911652988076, 50.494680002600596, 62.62114050376419 
132.19225790201077, 6.689001625538161, 22.16882843152816, 123.1768670568757, 50.629687249647645, 62.619641693319466 
131.29022988921815, 6.936102334420101, 22.16868615962237, 122.47386461651277, 50.76736969751938, 62.61811478836416 
130.38889551690366, 7.187352389995938, 22.168536324968592, 121.77007946700195, 50.90770974449891, 62.616560113385425 
129.48823202352392, 7.4426867694923855, 22.168378722664343, 121.06548091249991, 51.05068943466844, 62.614978001768755 
128.58821481531803, 7.702039697920493, 22.16821315127216, 120.36003727181054, 51.19629045807478, 62.613368795869825 
127.68881746912098, 7.965344669185576, 22.168039413187405, 119.65371584614451, 51.344494150763126, 62.61173284708293 
126.79001173625332, 8.232534466364214, 22.167857315003058, 118.94648288589, 51.495281494669925, 62.6100705159057 
125.89176754742768, 8.503541181120255, 22.16766666787108, 118.238303556345, 51.6486331173652, 62.608382172000184 
124.99405301861566, 8.77829623223374, 22.16746728785977, 117.52914190235889, 51.804529291634076, 62.60666819424956 
124.0968344578186, 9.056730383219136, 22.16725899630666, 116.81896081182924, 51.96294993488766, 62.60492897081055 
123.20007637268876, 9.338773759011055, 22.16704162016662, 116.10772197799623, 52.123874608391894, 62.60316489916148 
122.30374147894933, 9.624355861698195, 22.16681499235447, 115.39538586047563, 52.287282516303776, 62.60137638614545 
121.40779070956357, 9.91340558528771, 22.16657895208183, 114.68191164496763, 52.4531525045028, 62.599563848008344 
120.51218322460664, 10.205851229485022, 22.166333345187663, 113.96725720157666, 52.62146305920606, 62.597727710432096 
119.61687642179646, 10.501620512475244, 22.166078024462166, 113.25137904167387, 52.792192305353886, 62.59586840856199 
118.72182594764269, 10.800640582695156, 22.16581284996342, 112.53423227323096, 52.9653180047535, 62.59398638702904 
117.82698570917633, 11.102838029585959, 22.16553768932652, 111.81577055455094, 53.14081755396645, 62.59208209996589 
116.93230788622654, 11.408138893319208, 22.165252418064732, 111.09594604631809, 53.31866798192612, 62.5901560110174 
116.03774294421378, 11.716468673490319, 22.16495691986217, 110.37470936188535, 53.49884594727007, 62.5882085933445 
115.14323964743363, 12.027752336775304, 22.164651086857788, 109.65200951571454, 53.6813277353719, 62.58624032962212 
114.24874507280857, 12.341914323548774, 22.164334819920093, 108.92779386987993, 53.866089255056465, 62.58425171203046 
113.35420462409026, 12.658878553462504, 22.164008028912377, 108.20200807854302, 54.053106034981255, 62.582243242239535 
112.45956204649808, 12.978568429985819, 22.163670632947994, 107.47459603030076, 54.2423532196666, 62.58021543138709 
111.56475944178582, 13.30090684391044, 22.16332256063534, 106.74549978830656, 54.43380556515572, 62.57816880004921 
110.66973728373145, 13.625816175824376, 22.16296375031238, 106.01465952805779, 54.62743743428565, 62.57610387820414 
109.77443443405149, 13.953218297560802, 22.162594150270003, 105.28201347273988, 54.82322279154814, 62.5740212051887 
108.87878815874517, 14.283034572629369, 22.16221371896433, 104.54749782601135, 55.02113519751965, 62.571921329647154 
107.9827341448796, 14.615185855639377, 22.161822425217448, 103.81104670211003, 55.221147802837784, 62.569804809472934 
107.08620651783235, 14.949592490725196, 22.161420248406184, 103.072592053155, 55.4232333417006, 62.56767221174227 
106.18913785901329, 15.286174308986395, 22.16100717863898, 102.33206359351365, 55.62736412486415, 62.56552411264045 
105.29145922409315, 15.624850624956114, 22.16058321692028, 101.5893887210982, 55.83351203211232, 62.563361097380096 
104.3931001617724, 15.96554023211334, 22.160148375302324, 100.84449243544975, 56.04164850417144, 62.56118376011145 
