# MEX_intpoint_lon [deg], MEX_intpoint_lat [deg], MEX_intpoint_angle [deg], TGO_intpoint_lon [deg], TGO_intpoint_lat [deg], TGO_intpoint_angle [deg] 
-103.96358546809059, 20.42583264752647, 22.31364293387821, -149.19697661985512, 59.06271043613871, 62.52932770116159 
-104.87223325258974, 20.058557546711086, 22.31422750092809, -149.9915739988007, 58.8399500964391, 62.5315428206023 
-105.77918967155844, 19.69227902938016, 22.314801775732533, -150.7826433261928, 58.61869389795467, 62.53375221416684 
-106.68454565579319, 19.32708659567261, 22.315365595664158, -151.57029822765574, 58.398977234706976, 62.535955212877006 
-107.58839083044349, 18.96306908535169, 22.315918810555157, -152.35464870486388, 58.18083487739309, 62.53815115432978 
-108.49081348634638, 18.600314694229297, 22.316461282716865, -153.13580126032946, 57.96430099172214, 62.54033938288364 
-109.39190055281057, 18.23891098988497, 22.316992886944288, -153.91385901761993, 57.74940915573686, 62.542519249837625 
-110.29173757172377, 17.878944926642237, 22.317513510505574, -154.68892183714942, 57.53619237616867, 62.54469011360244 
-111.1904086728673, 17.520502859766726, 22.31802305311666, -155.4610864276929, 57.324683103871955, 62.54685133986403 
-112.08799655032828, 17.163670558853372, 22.318521426900865, -156.23044645376663, 57.11491324838163, 62.54900230173932 
-112.9845824399095, 16.808533220371412, 22.319008556333827, -156.99709263902105, 56.90691419163565, 62.55114237992428 
-113.88024609744319, 16.45517547933834, 22.319484378173783, -157.76111286578706, 56.70071680090185, 62.55327096283445 
-114.77506577792427, 16.103681420095786, 22.31994884137717, -158.5225922709164, 56.49635144094747, 62.55538744673746 
-115.66911821538467, 15.754134586161738, 22.32040190700002, -159.28161333805335, 56.29384798548671, 62.557491235878295 
-116.5624786034386, 15.406617989135878, 22.32084354808496, -160.03825598647194, 56.093235827941115, 62.559581742596635 
-117.45522057643574, 15.061214116635897, 22.321273749534292, -160.79259765661004, 55.8945438915451, 62.56165838743676 
-118.34741619116541, 14.718004939244691, 22.321692507969125, -161.54471339242838, 55.69780063882778, 62.56372059924996 
-119.23913590906284, 14.37707191644956, 22.32209983157492, -162.29467592071848, 55.503034080500655, 62.56576781528943 
-120.13044857887441, 14.03849600155656, 22.322495739933636, -163.0425557274809, 55.3102717837796, 62.5677994812979 
-121.02142141974564, 13.702357645564042, 22.322880263842652, -163.78842113149057, 55.11954088016759, 62.569815051587625 
-121.9121200047014, 13.368736799981637, 22.323253445120933, -164.53233835516335, 54.93086807272432, 62.571813989113735 
-122.80260824449522, 13.037712918581793, 22.32361533640235, -165.27437159283338, 54.74427964284673, 62.57379576553983 
-123.6929483718086, 12.709364958072987, 22.323966000916915, -166.01458307654778, 54.55980145658404, 62.575759861296945 
-124.58320092578941, 12.383771377684855, 22.32430551225984, -166.75303313948163, 54.37745897050944, 62.57770576563558 
-125.47342473692183, 12.061010137657231, 22.324633954148954, -167.489780277072, 54.1972772371697, 62.579632976670595 
-126.363676912227, 11.741158696626668, 22.324951420170734, -168.22488120596682, 54.01928091013312, 62.581541001419836 
-127.25401282079922, 11.424294007905193, 22.32525801351538, -168.95839092088164, 53.84349424865495, 62.58342935583595 
-128.14448607968626, 11.110492514648273, 22.32555384670119, -169.6903627494516, 53.669941121979214, 62.5852975648318 
-129.0351485401288, 10.79983014390988, 22.325839041288674, -170.4208484051658, 53.498645013294386, 62.587145162299734 
-129.92605027417778, 10.492382299584914, 22.32611372758482, -171.14989803846532, 53.32962902336003, 62.58897169112447 
-130.81723956171388, 10.188223854240269, 22.32637804433781, -171.87756028608462, 53.16291587382062, 62.590776703190336 
-131.70876287789667, 9.887429139838252, 22.326632138422774, -172.60388231871244, 52.99852791022236, 62.59255975938241 
-132.60066488107705, 9.590071937357193, 22.326876164518765, -173.3289098870453, 52.836487104747285, 62.59432042958197 
-133.49298840120832, 9.296225465316583, 22.327110284777692, -174.05268736630453, 52.676815058680035, 62.596058292656814 
-134.38577442879728, 9.005962367215457, 22.32733466848526, -174.7752577992832, 52.51953300461998, 62.59777293644587 
-135.279062104439, 8.719354697894962, 22.32754949171484, -175.49666293798956, 52.364661808452475, 62.599463957738855 
-136.17288870898295, 8.436473908838016, 22.327754936974287, -176.21694328394804, 52.21222197109197, 62.601130962250906 
-137.06728965438117, 8.15739083242095, 22.327951192846513, -176.93613812721836, 52.06223363000873, 62.602773564592596 
-137.96229847527212, 7.882175665134297, 22.32813845362408, -177.65428558418952, 51.91471656055153, 62.60439138823518 
-138.857946821357, 7.610897949791637, 22.3283169189384, -178.3714226342048, 51.76969017707683, 62.605984065471546 
-139.75426445062706, 7.343626556748294, 22.328486793383984, -179.0875851550697, 51.62717353389598, 62.60755123737305 
-140.65127922350354, 7.080429664153055, 22.328648286138343, -179.80280795749403, 51.487185326050565, 62.60909255374222 
-141.54901709795246, 6.821374737259226, 22.328801610577866, 179.48287518148342, 51.349743889925996, 62.61060767306185 
-142.44750212564014, 6.566528506822934, 22.32894698389033, 178.76943148604053, 51.21486720371311, 62.61209626244038 
-143.34675644919432, 6.3159569466193375, 22.329084626684523, 178.05682915004394, 51.08257288772718, 62.613557997554025 
-144.24680030063888, 6.069725250109618, 22.329214762597466, 177.34503730640373, 50.95287820459332, 62.614992562585726 
-145.14765200106922, 5.827897806293987, 22.32933761789972, 176.63402599727016, 50.825800059307014, 62.616399650161085 
-146.04932796163683, 5.590538174788417, 22.329453421099487, 175.92376614503323, 50.70135499917828, 62.61777896128169 
-146.9518426859113, 5.357709060164907, 22.329562402545708, 175.21422952408625, 50.57955921366748, 62.61913020525589 
-147.85520877368688, 5.129472285597939, 22.32966479403098, 174.5053887333189, 50.46042853412082, 62.6204530996273 
-148.7594369263018, 4.905888765861504, 22.329760828394697, 173.7972171693034, 50.34397843341293, 62.62174737010102 
-149.66453595353553, 4.687018479723987, 22.329850739126904, 173.08968900014153, 50.230224025504036, 62.62301275046852 
-150.57051278214908, 4.472920441789975, 22.32993475997343, 172.3827791399406, 50.119180064918794, 62.62424898253026 
-151.47737246613084, 4.263652673840692, 22.330013124542813, 171.67646322388734, 50.01086094615365, 62.62545581601721 
-152.38511819870945, 4.059272175726486, 22.330086065915626, 170.97071758389097, 49.90528070301928, 62.62663300851122 
-153.29375132619037, 3.859834895867327, 22.330153816256445, 170.26551922476708, 49.80245300792474, 62.62778032536419 
-154.20327136367266, 3.6653957014189382, 22.330216606429364, 169.56084580093585, 49.70239117110932, 62.62889753961664 
-155.11367601269708, 3.4760083481641284, 22.33027466561723, 168.8566755936086, 49.605108139828204, 62.62998443191547 
-156.02496118087393, 3.291725450190879, 22.330328220945308, 168.15298748843765, 49.510616497497786, 62.63104079043169 
-156.93712100353412, 3.1125984494202, 22.3303774971097, 167.44976095360704, 49.4189284628062, 62.63206641077763 
-157.8501478674438, 2.938677585048305, 22.330422716011245, 166.74697601834018, 49.33005588879435, 62.63306109592449 
-158.76403243661701, 2.770011862969226, 22.33046409639509, 166.04461325180358, 49.24401026191299, 62.63402465611995 
-159.67876368025605, 2.6066490252449257, 22.330501853496713, 165.34265374238532, 49.16080270106057, 62.63495690880635 
-160.59432890284396, 2.448635519691313, 22.330536198694592, 164.64107907732892, 49.080443956606906, 62.63585767853944 
-161.51071377640773, 2.2960164696491794, 22.330567339170173, 163.9398713227029, 49.002944409407284, 62.636726796907965 
-162.4279023749645, 2.1488356440100316, 22.33059547757551, 163.23901300368837, 48.92831406981161, 62.637564102454235 
-163.3458772111577, 2.0071354275668982, 22.330620811709032, 162.53848708516614, 48.85656257667281, 62.638369440596115 
-164.264619275082, 1.8709567917608578, 22.3306435341998, 161.83827695258762, 48.78769919635878, 62.63914266355018 
-165.18410807529114, 1.7403392658938726, 22.330663832200802, 161.13836639311242, 48.72173282177188, 62.639883630256314 
-166.104321681974, 1.615320908878265, 22.330681887091615, 160.43873957699765, 48.65867197137968, 62.640592206304504 
-167.025236772279, 1.4959382815929767, 22.330697874190776, 159.73938103922367, 48.59852478826095, 62.64126826386304 
-167.94682867775808, 1.3822264199159426, 22.33071196247836, 159.04027566134215, 48.54129903917003, 62.64191168160911 
-168.869071433896, 1.2742188085010562, 22.330724314329085, 158.3414086535326, 48.48700211362314, 62.64252234466127 
-169.79193783168208, 1.1719473553671234, 22.330735085256215, 157.64276553685406, 48.435641023010064, 62.643100144514776 
-170.7153994711748, 1.0754423673647413, 22.330744423666722, 156.94433212567924, 48.38722239973362, 62.64364497897873 
-171.63942681700345, 0.9847325265854674, 22.330752470628042, 156.24609451029886, 48.34175249638046, 62.6441567521166 
-172.56398925574194, 0.8998448677757726, 22.330759359646517, 155.54803903968389, 48.299237184925495, 62.64463537418888 
-173.48905515508443, 0.8208047568160886, 22.33076521645819, 154.85015230439487, 48.25968195597271, 62.64508076159902 
-174.41459192474565, 0.7476358703230178, 22.33077015883178, 154.15242111962672, 48.22309191803472, 62.64549283684224 
-175.34056607900104, 0.6803601764300649, 22.330774296384565, 153.45483250837867, 48.18947179685321, 62.64587152845745 
-176.26694330077643, 0.6189979167995632, 22.33077773041102, 152.75737368473835, 48.15882593476256, 62.64621677098236 
-177.19368850719096, 0.5635675899153059, 22.330780553724683, 152.06003203727056, 48.13115829009839, 62.64652850491202 
-178.1207659164502, 0.5140859357022917, 22.330782850513387, 151.36279511250063, 48.10647243665293, 62.64680667666062 
-179.04813911598217, 0.47056792151643967, 22.330784696208013, 150.66565059848264, 48.08477156317875, 62.64705123852682 
-179.9757711317032, 0.43302672954360344, 22.33078615736498, 149.96858630844343, 48.06605847294233, 62.647262148662726 
179.0963755017037, 0.401473745643372, 22.330787291562654, 149.27159016449306, 48.05033558332886, 62.647439371046254 
178.1683386696197, 0.3759185496692395, 22.330788147311733, 148.57465018139283, 48.03760492549924, 62.647582875457616 
177.24015660555557, 0.3563689072926433, 22.330788763979797, 147.877754450372, 48.027868144100395, 62.64769263745886 
176.3118678185797, 0.34283076335413, 22.33078917173011, 147.18089112298495, 48.021126497029755, 62.6477686383779 
175.3835110202405, 0.33530823676068267, 22.33078939147473, 146.48404839499918, 48.01738085525445, 62.64781086529582 
174.45512505111554, 0.33380361694377275, 22.330789434842, 145.78721449030712, 48.01663170268586, 62.64781931103827 
173.52674880712354, 0.33831736188831557, 22.330789304158497, 145.09037764485203, 48.018879136109724, 62.64779397417059 
172.59842116573316, 0.34884809773819625, 22.330788992445402, 144.3935260905603, 48.02412286517226, 62.64773485899691 
171.67018091220677, 0.3653926199794453, 22.330788483429338, 143.69664803927188, 48.03236221242202, 62.64764197556305 
170.742066666014, 0.3879458961977123, 22.330787751567712, 142.99973166666007, 48.04359611340757, 62.64751533966318 
169.8141168075506, 0.41650107040214684, 22.33078676208833, 142.30276509613233, 48.05782311683068, 62.64735497285053 
168.88636940529716, 0.45104946890323677, 22.330785471043512, 141.60573638270424, 48.07504138475463, 62.64716090245168 
167.95886214354985, 0.4915806077278582, 22.3307838253784, 140.90863349683718, 48.09524869286681, 62.646933161584855 
167.0316322508523, 0.5380822015503386, 22.33078176301354, 140.21144430823193, 48.11844243079522, 62.64667178918179 
166.10471642925668, 0.590540174114194, 22.330779212941444, 139.51415656956917, 48.14461960247772, 62.64637683001346 
165.17815078453648, 0.6489386701148776, 22.3307760953372, 138.81675790018758, 48.173776826582944, 62.64604833471934 
164.25197075747127, 0.7132600685101176, 22.330772321682883, 138.1192357696913, 48.205910336981916, 62.64568635984022 
163.32621105631833, 0.783484997220335, 22.330767794905544, 137.4215774814768, 48.24101598326856, 62.6452909678548 
162.4009055905813, 0.8595923491780187, 22.330762409528703, 136.72377015617027, 48.27908923132807, 62.64486222721929 
161.47608740618173, 0.9415592996814568, 22.33075605183714, 136.02580071496504, 48.32012516395104, 62.644400212410865 
160.5517886221322, 1.0293613250048075, 22.33074860005465, 135.32765586285032, 48.36411848149161, 62.64390500397405 
159.62804036880533, 1.1229722222133531, 22.33073992453465, 134.62932207171943, 48.41106350256779, 62.64337668857015 
158.70487272788566, 1.2223641301300137, 22.330729887963315, 133.93078556334848, 48.46095416480158, 62.64281535903028 
157.78231467408557, 1.3275075513962156, 22.330718345575015, 133.2320322922335, 48.513784025596635, 62.64222111441087 
156.86039401869914, 1.438371375568026, 22.33070514537973, 132.53304792827512, 48.56954626295101, 62.64159406005209 
155.93913735506166, 1.5549229031860523, 22.33069012840216, 131.83381783929957, 48.62823367630233, 62.64093430763902 
155.0185700059747, 1.6771278707556885, 22.330673128932226, 131.13432707340286, 48.68983868740258, 62.64024197526556 
154.09871597314978, 1.8049504765724935, 22.330653974786575, 130.43456034110662, 48.7543533412196, 62.639517187500424 
153.179597888717, 1.938353407325999, 22.330632487580825, 129.73450199731212, 48.82176930686203, 62.638760075455586 
152.2612369688369, 2.0772978654140424, 22.330608483012153, 129.03413602303897, 48.89207787852461, 62.63797077685711 
151.3436529694472, 2.2217435968986012, 22.330581771151728, 128.3334460069344, 48.96526997645028, 62.637149436117426 
150.42686414416863, 2.3716489200334223, 22.330552156746926, 127.63241512653866, 49.04133614790549, 62.6362962044098 
149.51088720438733, 2.526970754293164, 22.330519439532484, 126.93102612929115, 49.120266568165036, 62.63541123974449 
148.59573728152378, 2.6876646498335846, 22.330483414550617, 126.22926131326165, 49.20205104150231, 62.63449470704608 
147.68142789149204, 2.853684817311971, 22.330443872479318, 125.52710250758965, 49.286679002181096, 62.633546778232365 
146.7679709013464, 3.024984157997569, 22.33040059996863, 124.82453105261541, 49.37413951544454, 62.632567632294176 
145.85537649810516, 3.20151429410179, 22.330353379984412, 124.12152777968365, 49.46442127849679, 62.63155745537632 
144.9436531597372, 3.383225599258712, 22.330301992159004, 123.41807299060247, 49.5575126214728, 62.630516440859104 
144.03280762828862, 3.570067229087215, 22.330246213148513, 122.71414643673693, 49.65340150839161, 62.6294447894404 
143.1228448851234, 3.7619871517668892, 22.330185816996142, 122.0097272977173, 49.75207553808778, 62.62834270921826 
142.21376812824494, 3.958932178561222, 22.330120575501084, 121.30479415974114, 49.85352194511642, 62.627210415773376 
141.30557875166195, 4.1608479942225705, 22.330050258592536, 120.59932499344623, 49.95772760062579, 62.62604813225176 
140.39827632675627, 4.367679187215277, 22.329974634708314, 119.89329713133219, 50.06467901319274, 62.62485608944694 
139.49185858560674, 4.579369279694453, 22.329893471177556, 119.18668724470567, 50.17436232961448, 62.62363452588196 
138.58632140621913, 4.795860757180046, 22.32980653460703, 118.47947132012482, 50.286763335651486, 62.62238368789032 
137.68165879960844, 5.017095097867447, 22.329713591270547, 117.77162463531614, 50.401867456714925, 62.62110382969644 
136.7778628986772, 5.243012801517801, 22.32961440750091, 117.06312173453668, 50.519659758492566, 62.6197952134946 
135.87492394882983, 5.473553417873544, 22.329508750083967, 116.3539364033525, 50.64012494750659, 62.618458109527026 
134.97283030026216, 5.708655574546309, 22.32939638665414, 115.64404164280423, 50.7632473715964, 62.61709279615996 
134.07156840186101, 5.948257004326999, 22.329277086090997, 114.93340964292763, 50.88901102031967, 62.61569955995838 
133.17112279664988, 6.1922945718697635, 22.329150618916366, 114.22201175559753, 51.01739952526424, 62.61427869575856 
132.27147611871277, 6.440704299704132, 22.329016757691303, 113.50981846666045, 51.148396160263424, 62.61283050673832 
131.37260909152985, 6.693421393531581, 22.32887527741256, 112.79679936732097, 51.28198384150702, 62.611355304485265 
130.47450052765544, 6.950380266765609, 22.32872595590804, 112.0829231247445, 51.41814512754003, 62.609853409062005 
129.577127329672, 7.2115145642761975, 22.32856857423048, 111.36815745183817, 51.55686221914069, 62.60832514906876 
128.68046449235035, 7.47675718530258, 22.328402917049168, 110.65246907616942, 51.69811695906949, 62.606770861702856 
127.78448510594966, 7.746040305499832, 22.32822877303893, 109.9358237079803, 51.84189083167988, 62.60519089281506 
126.88916036059071, 8.019295398087941, 22.328045935265976, 109.21818600725378, 51.98816496238201, 62.60358559696227 
125.99445955163617, 8.296453254073787, 22.327854201570073, 108.49951954978616, 52.13692011694935, 62.601955337456715 
125.10035008601504, 8.577444001518991, 22.327653374942585, 107.7797867922184, 52.28813670065885, 62.60030048641115 
124.20679748942825, 8.862197123829022, 22.327443263899752, 107.0589490359761, 52.44179475725399, 62.59862142478009 
123.31376541437578, 9.15064147704083, 22.32722368285086, 106.33696639006672, 52.59787396772019, 62.596918542396615 
122.42121564894751, 9.442705306088985, 22.32699445246076, 105.61379773268007, 52.756353648861676, 62.595192238004856 
121.52910812632268, 9.738316260031942, 22.32675540000619, 104.88940067153554, 52.917212751667904, 62.593442919287526 
120.63740093492545, 10.037401406222745, 22.326506359725492, 104.16373150291763, 53.08042985945809, 62.59167100288916 
119.74605032918795, 10.33988724340995, 22.326247173161327, 103.43674516933869, 53.24598318579099, 62.58987691443359 
118.85501074087426, 10.645699713757166, 22.325977689495687, 102.70839521576511, 53.41385057212719, 62.58806108853668 
117.96423479092348, 10.954764213771158, 22.32569776587709, 101.97863374434077, 53.58400948523049, 62.58622396881362 
117.07367330177345, 11.267005604130572, 22.325407267739205, 101.24741136753882, 53.75643701429416, 62.584366007880355 
116.18327531012999, 11.582348218409276, 22.32510606911073, 100.51467715966986, 53.93110986777758, 62.5824876673496 
115.29298808015194, 11.900715870689856, 22.324794052915884, 99.78037860667189, 54.108004369938044, 62.58058941782078 
114.40275711702539, 12.222031862065048, 22.324471111265318, 99.04446155410426, 54.28709645704159, 62.57867173886391 
113.51252618090582, 12.546218986026018, 22.324137145736906, 98.30687015326507, 54.46836167323646, 62.57673511899733 
112.62223730121146, 12.873199532738779, 22.323792067646043, 97.56754680534743, 54.65177516607181, 62.57478005565907 
111.73183079125576, 13.202895292210913, 22.323435798305184, 96.82643210354844, 54.83731168164325, 62.57280705517165 
110.84124526321206, 13.535227556353204, 22.32306826927211, 96.08346477303901, 55.024945559346705, 62.570816632700435 
109.95041764340912, 13.870117119941543, 22.32268942258675, 95.33858160870173, 55.21465072622024, 62.56880931220496 
109.05928318796124, 14.207484280486664, 22.322299210996096, 94.59171741053872, 55.40640069085351, 62.56678562638367 
108.16777549874175, 14.54724883702052, 22.32189759816695, 93.84280491664853, 55.60016853684274, 62.56474611661158 
107.27582653971588, 14.889330087809498, 22.321484558886198, 93.09177473366786, 55.7959269157687, 62.56269133287073 
106.38336665365316, 15.23364682700652, 22.321060079248312, 92.33855526456945, 55.993648039673644, 62.56062183367365 
105.4903245792467, 15.580117340255208, 22.320624156829854, 91.58307263370482, 56.19330367301222, 62.558538185979536 
104.5966274686725, 15.92865939926111, 22.320176800850657, 90.825250608976, 56.3948651240501, 62.5564409651029 
