# MEX_intpoint_lon [deg], MEX_intpoint_lat [deg], MEX_intpoint_angle [deg], TGO_intpoint_lon [deg], TGO_intpoint_lat [deg], TGO_intpoint_angle [deg] 
-104.93623007685025, 20.646680016305083, 22.90365361869408, 175.91405649344657, 58.625752611416615, 62.53940187735637 
-105.82663533069183, 20.249089686614802, 22.90431028260399, 175.14345763476337, 58.39052120560489, 62.54176123098254 
-106.7153305759126, 19.852667591874678, 22.90495458289867, 174.37616679984606, 58.15693504053645, 62.54411408375362 
-107.60241935047542, 19.45750634492239, 22.905586338125417, 173.61207108121738, 57.92502883496881, 62.54645972393574 
-108.48800349533713, 19.0636978719771, 22.9062053818029, 172.8510614005574, 57.69483672417103, 62.548797447287285 
-109.37218313670988, 18.671333436341044, 22.90681156244063, 172.0930323655669, 57.46639227758944, 62.55112655725573 
-110.25505666939075, 18.280503661053352, 22.907404743540354, 171.33788213287693, 57.239728515451326, 62.553446365165684 
-111.13672074101339, 17.891298550465294, 22.90798480357935, 170.5855122767463, 57.014877924362025, 62.55575619039841 
-112.01727023708781, 17.503807510707542, 22.908551635975893, 169.83582766329462, 56.79187247194694, 62.55805536056207 
-112.8967982667043, 17.118119369022637, 22.90910514903673, 169.08873633002972, 56.57074362058789, 62.560343211653866 
-113.77539614878889, 16.734322391936857, 22.909645265886926, 168.34414937043533, 56.35152234030006, 62.56261908821266 
-114.65315339880804, 16.352504302248168, 22.91017192438202, 167.60198082339406, 56.134239120793524, 62.564882343463516 
-115.53015771582889, 15.972752294807744, 22.910685077002764, 166.86214756722975, 55.91892398276093, 62.567132339453025 
-116.40649496985297, 15.5951530510745, 22.91118469073257, 166.12456921816107, 55.705606488430554, 62.5693684471762 
-117.28224918934826, 15.21979275242321, 22.91167074691787, 165.38916803296675, 55.494315751422036, 62.57159004669463 
-118.15750254891545, 14.846757092188167, 22.912143241111597, 164.6558688156714, 55.28508044593994, 62.57379652724606 
-119.03233535703104, 14.476131286425678, 22.91260218290009, 163.92459882806781, 55.077928815338744, 62.57598728734538 
-119.90682604382005, 14.108000083379707, 22.913047595713543, 163.19528770390042, 54.87288868009059, 62.57816173487732 
-120.78105114881708, 13.74244777163653, 22.913479516620445, 162.4678673665413, 54.669987445186074, 62.58031928718068 
-121.65508530868519, 13.379558186955, 22.91389799610613, 161.74227194999713, 54.46925210699646, 62.582459371124195 
-122.5290012448658, 13.019414717760775, 22.914303097835937, 161.01843772309385, 54.270709259624326, 62.5845814231744 
-123.40286975114458, 12.662100309293411, 22.914694898403102, 160.29630301669042, 54.07438510076836, 62.58668488945533 
-124.27675968112135, 12.307697466397158, 22.91507348706199, 159.57580815378137, 53.88030543712672, 62.588769225800384 
-125.15073793558228, 11.956288254946834, 22.915438965446747, 158.856895382353, 53.68849568936205, 62.59083389779608 
-126.0248694497769, 11.60795430190206, 22.915791447276014, 158.1395088108646, 53.498980896650394, 62.59287838081863 
-126.89921718061055, 11.262776793984097, 22.916131058043945, 157.4235943462316, 53.31178572083497, 62.59490216006246 
-127.77384209376903, 10.920836474970965, 22.91645793469803, 156.70909963419248, 53.12693445020471, 62.596904730561754 
-128.64880315079742, 10.582213641608153, 22.916772225304094, 155.99597400194864, 52.94445100291691, 62.59888559720448 
-129.5241572961624, 10.246988138133549, 22.917074088699035, 155.28416840296796, 52.7643589300819, 62.60084427473942 
-130.39995944433204, 9.91523934941695, 22.917363694131577, 154.57363536385165, 52.586681418527476, 62.602780287776596 
-131.2762624669134, 9.58704619271601, 22.917641220891767, 153.86432893316513, 52.41144129325943, 62.60469317078053 
-132.15311717989331, 9.262487108052552, 22.917906857929488, 153.15620463214069, 52.23866101963413, 62.60658246805721 
-133.03057233103317, 8.941640047214559, 22.918160803462605, 152.44921940716193, 52.068362705258565, 62.608447733734934 
-133.90867458747286, 8.624582461391554, 22.918403264575304, 151.74333158394614, 51.90056810163205, 62.61028853173848 
-134.7874685236054, 8.311391287452812, 22.918634456807006, 151.03850082334205, 51.735298605543896, 62.61210443575792 
-135.66699660928603, 8.002142932879945, 22.91885460373258, 150.33468807866663, 51.57257526024026, 62.61389502921136 
-136.5472991984463, 7.69691325936781, 22.919063936534286, 149.63185555450653, 51.41241875637286, 62.61565990520227 
-137.42841451818606, 7.395777565109892, 22.91926269356606, 148.92996666691354, 51.25484943274227, 62.61739866647151 
-138.31037865842032, 7.098810565786644, 22.91945111991073, 148.2289860049271, 51.099887276847355, 62.61911092534432 
-139.19322556216306, 6.806086374277719, 22.919629466930665, 147.5288792933589, 50.94755192525224, 62.62079630367239 
-140.07698701653058, 6.517678479121961, 22.91979799181263, 146.8296133567793, 50.79786266378198, 62.62245443277149 
-140.9616926445527, 6.2336597217510485, 22.91995695710717, 146.13115608464582, 50.650838427557346, 62.62408495335454 
-141.84736989788107, 5.954102272526031, 22.920106630263422, 145.43347639751866, 50.50649780087888, 62.625687515460555 
-142.73404405048615, 5.67907760560849, 22.92024728315981, 144.73654421430976, 50.364859016970215, 62.627261778379854 
-143.62173819343795, 5.408656472700885, 22.92037919163116, 144.04033042051418, 50.22593995758992, 62.628807410575426 
-144.51047323086473, 5.14290887569374, 22.92050263499308, 143.34480683737553, 50.08975815252119, 62.63032408960099 
-145.40026787718736, 4.8819040382602825, 22.920617895564103, 142.6499461919391, 49.95633077894809, 62.631811502015886 
-146.2911386557259, 4.625710376442035, 22.920725258186103, 141.95572208794843, 49.82567466072693, 62.63326934329701 
-147.18309989877704, 4.374395468271966, 22.920825009743886, 141.2621089775424, 49.69780626756112, 62.63469731774809 
-148.07616374925914, 4.128026022485029, 22.920917438684395, 140.5690821337141, 49.57274171408729, 62.63609513840657 
-148.97034016402236, 3.8866678463686206, 22.921002834536136, 139.8766176234912, 49.45049675888056, 62.63746252694829 
-149.86563691891973, 3.6503858128090076, 22.921081487429696, 139.18469228180226, 49.33108680338639, 62.63879921359033 
-150.76205961573356, 3.419243826592304, 22.921153687619558, 138.49328368599362, 49.21452689078621, 62.64010493699206 
-151.6596116910493, 3.193304790022071, 22.921219725008424, 137.80237013096337, 49.10083170480384, 62.641379444154914 
-152.55829442716703, 2.9726305679180833, 22.921279888674047, 137.1119306048803, 48.99001556845955, 62.64262249032086 
-153.4581069651371, 2.757281952064039, 22.921334466399717, 136.42194476545785, 48.88209244277822, 62.64383383887014 
-154.3590463200025, 2.547318625174561, 22.921383744208637, 135.73239291675327, 48.77707592545808, 62.64501326121809 
-155.26110739832797, 2.342799124454499, 22.921428005903113, 135.043255986465, 48.67497924950596, 62.64616053671179 
-156.16428301808924, 2.143780804826268, 22.921467532608894, 134.35451550370098, 48.575815281845415, 62.647275452526316 
-157.06856393099198, 1.9503198019031167, 22.921502602325464, 133.6661535771932, 48.47959652190299, 62.6483578035612 
-157.97393884728407, 1.7624709947887143, 22.921533489482776, 132.97815287393394, 48.3863351001786, 62.64940739233714 
-158.8803944631181, 1.5802879687852451, 22.92156046450501, 132.2904965982109, 48.296042776805265, 62.65042402889314 
-159.78791549051533, 1.4038229780943352, 22.921583793382023, 131.6031684710191, 48.20873094010335, 62.65140753068456 
-160.6964846899742, 1.2331269085965668, 22.92160373724894, 130.9161527098282, 48.124410605134536, 62.65235772248208 
-161.60608290576005, 1.0682492407969784, 22.92162055197452, 130.22943400868579, 48.043092412260144, 62.65327443627174 
-162.51668910390308, 0.9092380130249017, 22.921634487758816, 129.54299751863707, 47.96478662570873, 62.65415751115675 
-163.42828041292557, 0.7561397849776258, 22.921645788740612, 128.8568288284425, 47.889503132157365, 62.65500679326047 
-164.34083216730818, 0.6089996016978455, 22.921654692615324, 128.17091394557616, 47.817251439330846, 62.6558221356317 
-165.25431795369806, 0.46786095807536526, 22.921661430263637, 127.48523927748793, 47.748040674623304, 62.65660339815163 
-166.16870965985106, 0.33276576396345336, 22.921666225391526, 126.79979161311371, 47.68187958374595, 62.657350447443235 
-167.0839775262911, 0.2037543100000437, 22.921669294182134, 126.11455810461788, 47.61877652940491, 62.65806315678307 
-168.00009020066068, 0.08086523422340033, 22.92167084495986, 125.42952624935396, 47.558739490012904, 62.658741406015736 
-168.91701479472513, -0.03586451042900848, 22.921671077867245, 124.74468387202883, 47.50177605843814, 62.65938508147097 
-169.83471694398492, -0.14639968765105313, 22.921670184554987, 124.06001910705787, 47.44789344079402, 62.65999407588389 
-170.75316086983938, -0.2507068082419553, 22.921668347885518, 123.37552038109699, 47.39709845527255, 62.66056828831827 
-171.6723094442356, -0.3487541594398366, 22.921665741650546, 122.69117639574038, 47.34939753102473, 62.66110762409312 
-172.59212425672587, -0.4405118330331133, 22.92166253030296, 122.0069761103713, 47.304796707090695, 62.66161199471273 
-173.51256568384827, -0.5259517521706761, 22.9216588687034, 121.32290872515479, 47.263301631382255, 62.66208131780038 
-174.43359296073476, -0.6050476967946141, 22.921654901881837, 120.63896366416134, 47.22491755972056, 62.662515517035466 
-175.35516425484167, -0.6777753276227168, 22.921650764814597, 119.95513055861069, 47.18964935493104, 62.66291452209484 
-176.2772367416894, -0.7441122086113657, 22.921646582216923, 119.2713992302259, 47.15750148599794, 62.6632782685979 
-177.19976668248884, -0.8040378278333639, 22.9216424683515, 118.5877596746875, 47.12847802728056, 62.66360669805588 
-178.12270950352413, -0.8575336167095658, 22.921638526853183, 117.9042020451782, 47.10258265779293, 62.66389975782506 
-179.04601987715336, -0.9045829675374822, 22.921634850570076, 117.22071663600894, 47.07981866054879, 62.66415740106466 
-179.96965180428288, -0.9451712492647107, 22.921631521421283, 116.53729386631738, 47.06018892197331, 62.66437958669866 
179.10644130183755, -0.9792858214603033, 22.921628610271487, 115.8539242638294, 47.043695931382885, 62.664566279382385 
178.1823065306556, -1.0069160464419658, 22.92162617682239, 115.17059844867605, 47.030341780534584, 62.66471744947337 
177.25799138835657, -1.0280532995226592, 22.921624269521438, 114.48730711725644, 47.02012816324569, 62.66483307300688 
176.3335437110698, -1.042690977345668, 22.921622925487664, 113.80404102613895, 47.01305637508469, 62.664913131676066 
175.40901157741314, -1.050824504282767, 22.921622170454956, 113.12079097599246, 47.009127313134435, 62.66495761281657 
174.4844432205491, -1.052451336876142, 22.921622018732656, 112.43754779553926, 47.00834147582763, 62.66496650939612 
173.55988693992944, -1.047570966310531, 22.921622473183746, 111.75430232552213, 47.01069896285538, 62.664939820008605 
172.63539101290576, -1.036184918908011, 22.9216235252204, 111.07104540267723, 47.0161994751489, 62.66487754887274 
171.7110036063848, -1.0182967546439667, 22.921625154817196, 110.38776784370492, 47.02484231493446, 62.664779705835834 
170.78677268870678, -0.9939120636887776, 22.92162733054166, 109.70446042923088, 47.03662638586125, 62.66464630638186 
169.86274594192363, -0.9630384609856525, 22.921630009602364, 109.02111388774914, 47.05155019320225, 62.664477371644416 
168.9389706746529, -0.9256855788812854, 22.921633137914405, 108.33771887953932, 47.069611844127195, 62.664272928424296 
168.01549373567983, -0.88186505783144, 22.921636650182077, 107.65426598054974, 47.09080904804739, 62.66403300921179 
167.0923614284773, -0.8315905352098825, 22.921640469998888, 106.9707456662383, 47.11513911703133, 62.663757652213235 
166.16961942680848, -0.7748776322541413, 22.921644509964473, 106.28714829536283, 47.14259896629027, 62.66344690138266 
165.24731269157306, -0.7117439391875915, 22.921648671818538, 105.60346409371216, 47.17318511473257, 62.66310080645722 
164.3254853890507, -0.6422089985621736, 22.921652846591407, 104.91968313776955, 47.206893685585555, 62.662719422997625 
163.40418081069208, -0.5662942868715333, 22.9216569147712, 104.23579533829911, 47.24372040708343, 62.66230281243248 
162.48344129459707, -0.48402319448886477, 22.921660746487202, 103.55179042384651, 47.28366061321945, 62.66185104210706 
161.56330814881628, -0.3954210039886395, 22.921664201709362, 102.86765792414428, 47.32670924456092, 62.66136418533609 
160.64382157660083, -0.30051486691548895, 22.921667130463494, 102.18338715341194, 47.372860849124535, 62.66084232146065 
159.7250206037197, -0.19933377906769276, 22.92166937306211, 101.49896719354115, 47.42210958331056, 62.660285535908976 
158.80694300795273, -0.09190855436639656, 22.92167076035032, 100.81438687715512, 47.474449212892885, 62.65969392026074 
157.88962525086026, 0.021728202614871746, 22.92167111396661, 100.12963477053187, 47.52987311406309, 62.65906757231567 
156.9731024119198, 0.14154212538274694, 22.92167024661824, 99.44469915637987, 47.588374274525556, 62.65840659616498 
156.05740812511092, 0.2674971154381547, 22.921667962370677, 98.75956801645451, 47.64994529464083, 62.65771110226636 
155.14257451801944, 0.39955537328922086, 22.92166405695088, 98.07422901400324, 47.714578388614505, 62.656981207522506 
154.22863215352285, 0.5376774304779242, 22.921658318063866, 97.38866947602686, 47.78226538572838, 62.65621703536233 
153.31560997410753, 0.6818221825338935, 22.92165052572231, 96.70287637534375, 47.852997731610536, 62.65541871582521 
152.40353524886015, 0.8319469227670735, 22.921640452588644, 96.01683631244313, 47.926766489541095, 62.654586385647825 
151.49243352316395, 0.988007376810227, 22.921627864329064, 95.33053549711335, 48.0035623417898, 62.65372018835376 
150.58232857112222, 1.1499577378211865, 22.921612519979398, 94.64395972983002, 48.08337559098193, 62.65282027434517 
149.6732423507206, 1.3177507022545953, 22.92159417232176, 93.9570943828883, 48.166196161488344, 62.65188680099678 
148.76519496173134, 1.491337506112638, 22.921572568272076, 93.26992438126307, 48.2520136008358, 62.65091993275178 
147.85820460635244, 1.6706679615845073, 22.921547449277522, 92.58243418317984, 48.34081708113306, 62.64991984121939 
146.95228755256696, 1.8556904939848335, 22.921518551723576, 91.89460776037862, 48.432595400508525, 62.64888670527405 
146.04745810019773, 2.046352178902221, 22.921485607350164, 91.20642857805149, 48.52733698455462, 62.647820711155845 
145.1437285496264, 2.2425987794698172, 22.921448343676133, 90.51787957443506, 48.62502988777441, 62.64672205257215 
144.24110917313584, 2.444374783671441, 22.92140648443181, 89.82894314003644, 48.72566179502514, 62.645590930799976 
143.3396081888296, 2.6516234415981423, 22.92135974999872, 89.13960109647192, 48.82922002295393, 62.64442755478907 
142.43923173707395, 2.8642868025719874, 22.921307857856267, 88.44983467489513, 48.935691521420125, 62.64323214126538 
141.53998385940196, 3.082305752055595, 22.921250523034388, 87.75962449399172, 49.045062874898726, 62.64200491483477 
140.64186647981336, 3.3056200482684654, 22.92118745857192, 87.06895053751535, 49.15732030385957, 62.64074610808652 
139.7448793883985, 3.534168358433086, 22.92111837597988, 86.3777921313394, 49.27244966611597, 62.63945596169669 
138.8490202272092, 3.767888294576587, 22.92104298570912, 85.68612791999708, 49.39043645813711, 62.63813472453082 
137.95428447829613, 4.006716448816107, 22.920960997621712, 84.99393584268148, 49.51126581631775, 62.636782653745925 
137.06066545382703, 4.250588428058867, 22.920872121465518, 84.30119310867617, 49.63492251819879, 62.63540001489125 
136.16815428819794, 4.499438888050843, 22.920776067351092, 83.60787617218452, 49.76139098363211, 62.63398708200817 
135.27673993204618, 4.753201566710576, 22.9206725462307, 82.9139607065256, 49.89065527588272, 62.63254413772793 
134.38640914807166, 5.0118093166878905, 22.92056127037839, 82.21942157766206, 50.02269910266114, 62.63107147336822 
133.49714650857146, 5.27519413709019, 22.92044195387069, 81.52423281702453, 50.157505817078636, 62.62956938902723 
132.60893439459045, 5.543287204322038, 22.920314313067408, 80.8283675935942, 50.29505841851772, 62.6280381936756 
131.7217529965919, 5.81601890198674, 22.92017806709163, 80.13179818520526, 50.43533955341003, 62.626478205246045 
130.835580316549, 6.09331884980195, 22.920032938308502, 79.43449594902478, 50.578331515913625, 62.62488975071971 
129.9503921713604, 6.375115931483944, 22.919878652802122, 78.73643129116788, 50.72401624848099, 62.623273166209934 
129.06616219749273, 6.661338321558791, 22.919714940849815, 78.03757363540186, 50.87237534230957, 62.62162879704242 
128.18286185675336, 6.951913511061063, 22.9195415373933, 77.33789139089288, 51.02339003766515, 62.61995699783211 
127.30046044309964, 7.2467683320841845, 22.919358182506052, 76.63735191894453, 51.17704122406955, 62.61825813255602 
126.41892509039019, 7.5458289811491195, 22.91916462185626, 75.93592149867685, 51.33330944034228, 62.61653257462234 
125.53822078098904, 7.849021041360976, 22.918960607164777, 75.23356529159084, 51.492174874486814, 62.614780706935086 
124.65831035513236, 8.156269503326078, 22.918745896657448, 74.53024730496138, 51.653617363410426, 62.61300292195427 
123.77915452097393, 8.467498784804366, 22.91852025551126, 73.82593035399883, 51.81761639246746, 62.61119962175131 
122.90071186522512, 8.782632749075104, 22.91828345629365, 73.120576022716, 51.98415109481448, 62.609371218059906 
122.02293886431164, 9.10159472199584, 22.91803527939446, 72.41414462343549, 52.153200250565675, 62.60751813232091 
121.14578989597058, 9.424307507737577, 22.91777551344994, 71.70659515486751, 52.3247422857367, 62.60564079572258 
120.26921725121734, 9.750693403180879, 22.917503955758278, 70.99788525868699, 52.498755270964025, 62.60373964923481 
119.39317114661388, 10.08067421096049, 22.917220412685978, 70.2879711745332, 52.67521691998703, 62.601815143637715 
118.51759973677665, 10.414171251147682, 22.916924700064726, 69.57680769335376, 52.85410458787879, 62.5998677395439 
117.64244912706563, 10.751105371561856, 22.91661664357813, 68.86434810900897, 53.03539526901174, 62.59789790741495 
116.76766338640107, 11.0913969567051, 22.916296079137755, 68.15054416805005, 53.21906559474297, 62.59590612757109 
115.89318456016007, 11.434965935314702, 22.915962853248086, 67.43534601757987, 53.40509183080386, 62.5938928901943 
115.01895268311024, 11.781731786531168, 22.915616823359795, 66.71870215110069, 53.59344987437757, 62.591858695324866 
114.1449057923432, 12.131613544680258, 22.915257858210982, 66.00055935224901, 53.78411525084767, 62.58980405285073 
113.27097994017578, 12.484529802669874, 22.9148858381558, 65.28086263631253, 53.97706311019984, 62.587729482489664 
112.39710920699424, 12.840398714003575, 22.914500655480058, 64.55955518941975, 54.17226822305815, 62.5856355137644 
111.523225714021, 13.199137993414508, 22.914102214703476, 63.83657830528706, 54.369704976336315, 62.58352268596997 
110.64925963599086, 13.560664916124491, 22.913690432867973, 63.11187131940311, 54.56934736848344, 62.5813915481336 
109.77513921373024, 13.92489631573473, 22.913265239811835, 62.38537154052488, 54.77116900430255, 62.57924265896705 
108.90079076663817, 14.29174858075581, 22.912826578429147, 61.65701417935287, 54.97514308931964, 62.5770765868106 
108.0261387050769, 14.661137649785692, 22.912374404914345, 60.9267322742485, 55.181242423678924, 62.57489390956947 
107.15110554268473, 15.032979005346116, 22.91190868899141, 60.19445661384854, 55.38943939553984, 62.57269521464193 
106.27561190863264, 15.407187666388547, 22.911429414127362, 59.460115656426574, 55.599705973948936, 62.57048109883922 
105.39957655985279, 15.783678179482285, 22.910936577729885, 58.72363544584313, 55.812013701159245, 62.56825216829708 
