# MEX_intpoint_lon [deg], MEX_intpoint_lat [deg], MEX_intpoint_angle [deg], TGO_intpoint_lon [deg], TGO_intpoint_lat [deg], TGO_intpoint_angle [deg] 
-104.2567055147224, 20.494367879998943, 22.48715900728969, -159.2847284981004, 59.15480620511533, 62.528593443910005 
-105.16010653827448, 20.118007780643286, 22.48776471765958, -160.08443358278384, 58.934806266823074, 62.53077718986229 
-106.06180655126951, 19.74269423377093, 22.488359541424586, -160.88056979276485, 58.71627951498304, 62.53295537105825 
-106.96190026857352, 19.36851777453647, 22.4889433104172, -161.67325061510323, 58.49926146356133, 62.535127327835696 
-107.86048098616479, 18.99556826736746, 22.489515869650262, -162.4625859702045, 58.2837869963387, 62.537292406917096 
-108.75764055527391, 18.623934924529074, 22.490077077336597, -163.24868233211183, 58.06989038528644, 62.53944996159365 
-109.65346935788902, 18.253706323886313, 22.490626804892596, -164.03164284456125, 57.8576053079439, 62.54159935190241 
-110.54805628349385, 17.88497042582767, 22.49116493692604, -164.8115674329206, 57.646964863843976, 62.54373994479538 
-111.44148870691508, 17.517814589316274, 22.491691371208077, -165.58855291213823, 57.43800159003121, 62.54587111430153 
-112.33385246716504, 17.15232558703701, 22.49220601862942, -166.36269309082553, 57.2307474757145, 62.54799224168128 
-113.22523184717403, 16.78858961960954, 22.492708803140964, -167.134078871599, 57.02523397609503, 62.55010271557335 
-114.11570955431559, 16.426692328839813, 22.493199661678897, -167.90279834780634, 56.82149202540771, 62.55220193213417 
-115.0053667016361, 16.06671880998394, 22.49367854407437, -168.66893689675922, 56.61955204921294, 62.554289295170015 
-115.8942827897087, 15.708753623000087, 22.494145412948026, -169.43257726959595, 56.419443975973664, 62.55636421626146 
-116.78253568903838, 15.3528808027661, 22.494600243589417, -170.193799677893, 56.221197247950954, 62.558426114880604 
-117.6702016229546, 14.99918386824169, 22.49504302382158, -170.95268187714396, 56.02484083145021, 62.56047441850093 
-118.55735515093292, 14.647745830555861, 22.495473753850984, -171.7092992472211, 55.83040322644806, 62.56250856269976 
-119.44406915229717, 14.298649200001591, 22.495892446103042, -172.46372486993278, 55.63791247562897, 62.56452799125354 
-120.3304148102579, 13.951975991921469, 22.496299125043446, -173.21602960378652, 55.447396172859364, 62.56653215622588 
-121.21646159625273, 13.607807731469126, 22.496693826985535, -173.96628215606574, 55.258881471125314, 62.56852051804871 
-122.10227725455776, 13.266225457233144, 22.49707659988415, -174.71454915232385, 55.0723950899592, 62.570492545596075 
-122.98792778714915, 12.927309723711055, 22.49744750311599, -175.46089520339768, 54.88796332237926, 62.572447716251204 
-123.8734774387971, 12.591140602623039, 22.497806607247018, -176.20538297003833, 54.705612041364894, 62.5743855159667 
-124.75898868238303, 12.25779768305592, 22.498153993787188, -176.9480732252553, 54.52536670588982, 62.57630543931808 
-125.64452220443569, 11.927360070429778, 22.498489754932663, -177.68902491446568, 54.34725236653386, 62.57820698955044 
-126.5301368908873, 11.599906384280963, 22.498813993296178, -178.4282952135379, 54.17129367069341, 62.58008967861892 
-127.41588981305837, 11.275514754856639, 22.499126821625683, -179.1659395848167, 53.99751486740981, 62.58195302722252 
-128.30183621388238, 10.95426281851795, 22.499428362511676, -179.90201183121243, 53.825939811834, 62.58379656483188 
-129.18802949439018, 10.636227711949982, 22.499718748083808, 179.363435851565, 53.656591969344646, 62.585619829710794 
-130.07452120047566, 10.321486065178863, 22.49999811969687, 178.63035282454948, 53.48949441933708, 62.587422368931705 
-130.96136100997245, 10.01011399339761, 22.50026662760691, 177.89868995676494, 53.3246698586987, 62.589203738385656 
-131.84859672007315, 9.70218708760453, 22.500524430637654, 177.16839957810205, 53.162140604986476, 62.59096350278613 
-132.7362742351297, 9.397780404059354, 22.500771695837813, 176.43943543375588, 53.00192859932133, 62.592701235667796 
-133.62443755487607, 9.09696845256449, 22.501008598129726, 175.71175264015827, 52.84405540901353, 62.59441651937957 
-134.5131287631192, 8.79982518358071, 22.50123531994977, 174.98530764233985, 52.68854222993284, 62.59610894507268 
-135.40238801694832, 8.506423974188285, 22.501452050881028, 174.26005817266, 52.535409888636394, 62.59777811268366 
-136.29225353651648, 8.216837612907021, 22.501658987278695, 173.53596321084555, 52.384678844266965, 62.599423630912554 
-137.18276159545064, 7.931138283390619, 22.501856331888803, 172.81298294528062, 52.23636919023378, 62.601045117196286 
-138.07394651195094, 7.649397547012971, 22.502044293460617, 172.09107873549283, 52.09050065568731, 62.60264219767786 
-138.96584064064274, 7.3716863243661, 22.50222308635336, 171.37021307578286, 51.94709260679953, 62.60421450717099 
-139.85847436524693, 7.0980748756922445, 22.502392930137724, 170.65034955994662, 51.80616404786013, 62.60576168912076 
-140.75187609213688, 6.82863278027428, 22.502554049192643, 169.93145284704156, 51.66773362219934, 62.60728339556045 
-141.6460722448527, 6.5634289148116185, 22.50270667229801, 169.2134886281496, 51.53181961294725, 62.60877928706456 
-142.5410872596449, 6.302531430810945, 22.502851032223752, 168.4964235940926, 51.398439943639225, 62.610249032698356 
-143.43694358212156, 6.046007731023592, 22.502987365315743, 167.7802254040563, 51.26761217867692, 62.61169230996415 
-144.33366166507363, 5.7939244449639675, 22.50311591107937, 167.06486265508212, 51.13935352365361, 62.61310880474448 
-145.23125996755414, 5.5463474035460205, 22.503236911761, 166.35030485238644, 51.013680825552846, 62.61449821124239 
-146.12975495528775, 5.303341612877159, 22.503350611928067, 165.63652238046947, 50.89061057282852, 62.615860231919065 
-147.02916110248714, 5.064971227251612, 22.503457258048297, 164.92348647497715, 50.7701588953746, 62.61719457742881 
-147.92949089515133, 4.831299521387964, 22.503557098068637, 164.21116919528083, 50.65234156439225, 62.61850096655224 
-148.83075483592296, 4.6023888619578415, 22.503650380994415, 163.49954339774078, 50.53717399216203, 62.61977912612668 
-149.73296145057677, 4.378300678455503, 22.503737356469276, 162.78858270962223, 50.42467123172834, 62.621028790975465 
-150.63611729621434, 4.159095433460346, 22.50381827435653, 162.07826150363127, 50.314847976503174, 62.622249703835124 
-151.54022697123372, 3.9448325923470415, 22.503893384322396, 161.3685548730425, 50.2077185597962, 62.62344161528127 
-152.44529312714465, 3.7355705924999945, 22.503962935421633, 160.65943860738903, 50.10329695427743, 62.62460428365336 
-153.35131648229384, 3.531366812091547, 22.504027175686282, 159.9508891686874, 50.001596771379226, 62.62573747497831 
-154.25829583756357, 3.3322775384852372, 22.504086351717845, 159.24288366817208, 49.9026312606435, 62.62684096289333 
-155.16622809410296, 3.138357936327581, 22.504140708283664, 158.535399843513, 49.80641330902024, 62.62791452856828 
-156.07510827314707, 2.9496620153940203, 22.50419048791783, 157.82841603649337, 49.7129554401231, 62.62895796062743 
-156.98492953797412, 2.766242598256289, 22.504235930527248, 157.12191117112383, 49.622269813447545, 62.62997105507121 
-157.89568321804788, 2.5881512878403585, 22.504277273003435, 156.41586473217086, 49.53436822355699, 62.630953615197825 
-158.80735883538492, 2.4154384349455893, 22.504314748840386, 155.71025674407855, 49.449262099242105, 62.63190545152498 
-159.7199441331832, 2.248153105797069, 22.504348587759218, 155.00506775026273, 49.36696250265827, 62.63282638171239 
-160.63342510674093, 2.0863430497045257, 22.50437901533995, 154.30027879275826, 49.28748012844601, 62.633716230484374 
-161.54778603668854, 1.9300546669019585, 22.50440625266096, 153.5958713922007, 49.21082530283908, 62.63457482955347 
-162.46300952455087, 1.7793329766431785, 22.504430515946574, 152.8918275281241, 49.13700798276465, 62.635402017545005 
-163.37907653064954, 1.6342215856288076, 22.50445201622326, 152.18812961955763, 49.066037754939885, 62.636197639922585 
-164.2959664143476, 1.4947626568408712, 22.50447095898495, 151.48476050590463, 48.99792383496907, 62.63696154891518 
-165.21365697663222, 1.3609968788611333, 22.50448754386772, 150.78170342808795, 48.93267506644532, 62.637693603445456 
-166.13212450502343, 1.2329634357491497, 22.50450196433462, 150.078942009946, 48.87029992006052, 62.6383936690597 
-167.05134382078816, 1.1106999775557544, 22.504514407370667, 149.37646023986528, 48.81080649272726, 62.63906161785978 
-167.97128832843308, 0.9942425915469719, 22.504525053188694, 148.67424245263473, 48.7542025067163, 62.63969732843664 
-168.8919300674395, 0.8836257742125057, 22.504534074946346, 147.97227331150836, 48.70049530881266, 62.64030068580643 
-169.8132397661974, 0.7788824041316756, 22.504541638474606, 147.27053779046312, 48.64969186949375, 62.64087158134825 
-170.7351868980869, 0.6800437157684247, 22.504547902018135, 146.5690211566392, 48.601798782132406, 62.64140991274481 
-171.6577397396473, 0.5871392742650295, 22.504553015987952, 145.86770895295052, 48.55682226222767, 62.641915583925325 
-172.58086543076695, 0.5001969513024245, 22.504557122726588, 145.16658698085365, 48.51476814666606, 62.6423885050109 
-173.50453003681838, 0.41924290209264403, 22.504560356286163, 144.46564128326378, 48.47564189301587, 62.642828592263065 
-174.42869861265623, 0.3443015435663714, 22.504562842219595, 143.76485812760635, 48.43944857885679, 62.64323576803477 
-175.3533352683883, 0.27539553381590276, 22.504564697385273, 143.06422398899434, 48.406192901147115, 62.643609960724625 
-176.2784032368222, 0.21254575285064764, 22.50456602976542, 142.36372553352007, 48.37587917563068, 62.64395110473406 
-177.20386494248447, 0.15577128471921076, 22.504566938298403, 141.6633496016517, 48.348511336285206, 62.64425914042752 
-178.12968207210142, 0.10508940104840171, 22.504567512725245, 140.96308319172485, 48.32409293481417, 62.64453401409641 
-179.05581564642597, 0.06051554604599074, 22.50456783345043, 140.26291344351947, 48.30262714018335, 62.644775677925594 
-179.9822260932884, 0.022063323009936055, 22.504567971417337, 139.56282762191253, 48.28411673820387, 62.64498408996406 
179.0911266782555, -0.010255517617190638, 22.504567987998403, 138.86281310059772, 48.268564131162854, 62.645159214098406 
178.1642832028109, -0.03643108861419119, 22.50456793490006, 138.1628573458628, 48.2559713375028, 62.64530102003028 
177.2372843827002, -0.056455374737612384, 22.504567854082772, 137.46294790041594, 48.246339991550634, 62.645409483257126 
176.31017141132824, -0.0703222398432072, 22.50456777769615, 136.7630723672526, 48.23967134329745, 62.64548458505662 
175.38298569599903, -0.07802743235166036, 22.504567728029183, 136.06321839355365, 48.235966258229396, 62.64552631247478 
174.45576878032776, -0.07956858904273745, 22.50456771747584, 135.36337365460702, 48.23522521721019, 62.645534658317615 
173.528562266395, -0.07494523716674403, 22.504567748515868, 134.66352583774386, 48.23744831641584, 62.64550962114658 
172.60140773678972, -0.06415879486710625, 22.504567813710977, 133.9636626262811, 48.24263526732156, 62.64545120527757 
171.67434667668965, -0.04721256991289667, 22.50456789571633, 133.2637716834618, 48.25078539674099, 62.64535942078378 
170.74742039612573, -0.024111756744961375, 22.50456796730737, 132.56384063638524, 48.26189764691757, 62.645234283502106 
169.82066995257867, 0.005136568155724077, 22.50456799142189, 131.86385705991765, 48.27597057566792, 62.64507581504327 
168.8941360740516, 0.040523452563930105, 22.504567921217387, 131.16380846057604, 48.29300235657661, 62.64488404280554 
167.9678590827636, 0.08203807645197213, 22.504567700143475, 130.46368226037563, 48.31299077924183, 62.644658999992195 
167.04187881960362, 0.12966776155435858, 22.504567262029454, 129.76346578063303, 48.33593324957129, 62.64440072563233 
166.11623456948297, 0.18339798252760292, 22.50456653118673, 129.06314622571566, 48.361826790127324, 62.644109264605596 
165.19096498771984, 0.24321237967295425, 22.504565422526053, 128.36271066672924, 48.390668040520275, 62.64378466766987 
164.26610802758478, 0.30909277318550954, 22.50456384168945, 127.6621460251337, 48.42245325784875, 62.643426991492916 
163.3417008691322, 0.3810191788889448, 22.504561685196524, 126.96143905627852, 48.45717831718568, 62.64303629868703 
162.41777984943596, 0.4589698254110341, 22.504558840605142, 126.26057633284802, 48.49483871210842, 62.64261265784706 
161.4943803943433, 0.5429211727513931, 22.504555186686087, 125.55954422820695, 48.535429555271286, 62.64215614359162 
160.57153695185337, 0.6328479321891911, 22.50455059361158, 124.85832889963602, 48.578945579018786, 62.64166683660761 
159.64928292722112, 0.72872308747524, 22.504544923157358, 124.15691627144786, 48.62538113603744, 62.641144823697424 
158.72765061987985, 0.8305179172497237, 22.5045380289181, 123.45529201797216, 48.67473020004412, 62.64059019782922 
157.80667116226894, 0.93820201862386, 22.504529756535813, 122.75344154639946, 48.72698636650854, 62.64000305819011 
156.88637446064556, 1.0517433318611935, 22.50451994394098, 122.05134997947235, 48.78214285340766, 62.63938351024185 
155.96678913795122, 1.1711081660918605, 22.504508421606104, 121.34900213801242, 48.84019250200899, 62.63873166577927 
155.04794247879747, 1.2962612259909532, 22.50449501281127, 120.64638252327076, 48.901127777680436, 62.63804764299089 
154.12986037662506, 1.4271656393503511, 22.50447953392145, 119.94347529908997, 48.9649407707236, 62.637331566522185 
153.21256728308555, 1.563782985471689, 22.50446179467519, 119.24026427386424, 49.031623197227326, 62.63658356754062 
152.2960861596835, 1.7060733243070256, 22.504441598484142, 118.53673288228458, 49.10116639993855, 62.63580378380313 
151.3804384317124, 1.853995226272448, 22.50441874274325, 117.83286416685485, 49.17356134914669, 62.634992359725054 
150.46564394450684, 2.007505802659413, 22.504393019151067, 117.1286407591644, 49.248798643578326, 62.63414944645102 
149.55172092202776, 2.1665607365677593, 22.504364214039768, 116.42404486090223, 49.326868511298315, 62.633275201927354 
148.6386859277889, 2.3311143142844775, 22.5043321087145, 115.71905822459685, 49.40776081061337, 62.63236979097572 
147.7265538281254, 2.5011194570318818, 22.504296479801468, 115.0136621340655, 49.491465030974275, 62.631433385368204 
146.815337757798, 2.6765277530094553, 22.50425709960457, 114.30783738455636, 49.577970293872205, 62.630466163903264 
145.90504908792053, 2.8572894896539665, 22.50421373646974, 113.601564262565, 49.66726535372515, 62.6294683124824 
144.9956973961893, 3.0433536860430133, 22.504166155156877, 112.89482252530777, 49.75933859874948, 62.62844002418795 
144.08729043938934, 3.234668125368384, 22.504114117218613, 112.18759137983209, 49.85417805181222, 62.62738149936081 
143.17983412814422, 3.431179387406429, 22.504057381385557, 111.4798494617442, 49.95177137125894, 62.62629294567882 
142.27333250387173, 3.632832880914155, 22.50399570395742, 110.77157481353312, 50.05210585171231, 62.625174578235146 
141.36778771790176, 3.83957287588109, 22.503928839199585, 110.06274486246953, 50.15516842483582, 62.624026619616494 
140.46320001270783, 4.051342535568725, 22.503856539744564, 109.35333639805626, 50.26094566005759, 62.622849299981134 
139.55956770519938, 4.268083948271052, 22.50377855699774, 108.64332554900763, 50.36942376524808, 62.621642857136244 
138.65688717201724, 4.489738158731664, 22.50369464154702, 107.93268775973212, 50.48058858734632, 62.62040753661487 
137.75515283677152, 4.716245199154971, 22.50360454357569, 107.22139776629332, 50.5944256129284, 62.61914359175152 
136.85435715915773, 4.947544119751093, 22.50350801327803, 106.50942957182218, 50.710919968711785, 62.61785128375714 
135.9544906258832, 5.1835730187566265, 22.50340480127711, 105.79675642135247, 50.830056421989354, 62.616530881792414 
135.05554174333452, 5.424269071875149, 22.503294659044258, 105.0833507760506, 50.951819380986095, 62.615182663039576 
134.1574970319137, 5.669568561084519, 22.50317733931947, 104.36918428680906, 51.07619289513171, 62.61380691277267 
133.26034102197008, 5.919406902759757, 22.503052596532566, 103.65422776717263, 51.20316065524189, 62.612403924425685 
132.3640562512521, 6.173718675063401, 22.502920187224063, 102.93845116556297, 51.33270599360084, 62.61097399965853 
131.46862326380403, 6.43243764455719, 22.502779870465698, 102.22182353676885, 51.46481188393734, 62.6095174484208 
130.57402061023112, 6.6954967919920545, 22.502631408279623, 101.50431301266472, 51.59946094128646, 62.60803458901278 
129.68022484925686, 6.962828337235381, 22.502474566056, 100.78588677212119, 51.73663542172864, 62.60652574814376 
128.787210550496, 7.2343637632976066, 22.502309112968394, 100.06651101006788, 51.87631722199755, 62.6049912609873 
127.89495029836884, 7.510033839422286, 22.502134822386196, 99.3461509056685, 52.01848787894814, 62.60343147123352 
127.003414697081, 7.7897686432065925, 22.50195147228393, 98.62477058956554, 52.16312856887528, 62.60184673113752 
126.11257237659692, 8.073497581721702, 22.50175884564654, 97.90233311015064, 52.310220106674116, 62.60023740156473 
125.22238999953488, 8.361149411604737, 22.501556730870252, 97.17880039881474, 52.45974294483169, 62.59860385203215 
124.33283226891427, 8.652652258096683, 22.501344922158633, 96.45413323413024, 52.61167717224007, 62.59694646074569 
123.4438619366881, 8.947933633002865, 22.501123219913, 95.7282912049153, 52.76600251282021, 62.59526561463324 
122.5554398129957, 9.24692045155502, 22.500891431116926, 95.00123267212864, 52.92269832394553, 62.593561709373496 
121.66752477607464, 9.549539048156115, 22.500649369714328, 94.2729147295408, 53.08174359465394, 62.591835149420184 
120.78007378277202, 9.855715190991585, 22.50039685698041, 93.54329316312578, 53.243116943636245, 62.59008634802134 
119.89304187960093, 10.165374095492407, 22.500133721885184, 92.81232240911467, 53.406796616988714, 62.58831572723403 
119.00638221428943, 10.478440436637971, 22.499859801449055, 92.07995551065063, 53.57276048571708, 62.58652371793365 
118.12004604777474, 10.794838360088377, 22.49957494108984, 91.34614407298211, 53.74098604297829, 62.58471075981812 
117.23398276659826, 11.114491492137947, 22.49927899496104, 90.61083821712867, 53.91145040104643, 62.58287730140654 
116.34813989566202, 11.437322948483715, 22.49897182628054, 89.87398653195113, 54.08413028798811, 62.58102380003238 
115.46246311131146, 11.763255341804221, 22.49865330764967, 89.13553602455578, 54.25900204403232, 62.57915072183075 
114.57689625471332, 12.092210788146163, 22.498323321361937, 88.39543206895829, 54.43604161761898, 62.57725854171989 
113.69138134550407, 12.424110912117678, 22.497981759701144, 87.65361835293224, 54.615224561109564, 62.575347743376554 
112.80585859568667, 12.758876850889258, 22.497628525228365, 86.91003682296214, 54.79652602614293, 62.57341881920531 
111.92026642376183, 13.096429257004422, 22.497263531057573, 86.16462762721969, 54.979920758618256, 62.57147227030128 
111.03454146908203, 13.436688300004244, 22.496886701119372, 85.41732905647817, 55.16538309328628, 62.56950860640664 
110.14861860642495, 13.779573666871181, 22.49649797041254, 84.66807748287725, 55.35288694792945, 62.567528345860616 
109.262430960787, 14.125004561299129, 22.496097285243046, 83.91680729644732, 55.54240581711035, 62.56553201554246 
108.37590992240384, 14.472899701798388, 22.49568460345019, 83.16345083929926, 55.73391276546707, 62.56352015080805 
107.48898516201147, 14.823177318645206, 22.495259894619505, 82.4079383373833, 55.927380420533055, 62.56149329541931 
106.60158464636713, 15.1757551496876, 22.494823140282243, 81.65019782971635, 56.12278096505796, 62.55945200146675 
105.71363465405587, 15.53055043501994, 22.494374334101003, 80.8901550949756, 56.32008612880502, 62.557396829284926 
104.8250597916152, 15.88747991054093, 22.49391348204136, 80.12773357535156, 56.51926717979904, 62.55532834736082 
