# MEX_intpoint_lon [deg], MEX_intpoint_lat [deg], MEX_intpoint_angle [deg], TGO_intpoint_lon [deg], TGO_intpoint_lat [deg], TGO_intpoint_angle [deg] 
-104.29618686596582, 20.50348587096101, 22.510830988387543, -160.71129062735326, 59.15228816287059, 62.528745040031865 
-105.19886431221333, 20.125897403129088, 22.511439587590743, -161.5108474221463, 58.93220865451748, 62.5309296957193 
-106.09983969966787, 19.749362341274132, 22.51203721812897, -162.30683649042368, 58.713603229449845, 62.53310878205836 
-106.9992082549644, 19.373971353889246, 22.512623711079023, -163.09937132474118, 58.49650739809403, 62.53528163911658 
-107.89706377025746, 18.99981443749437, 22.513198910797556, -163.88856184927116, 58.280956040883666, 62.537447613351574 
-108.79349857777068, 18.626980935493663, 22.513762674940708, -164.67451454022824, 58.06698342663497, 62.53960605779518 
-109.68860352569874, 18.25555955621668, 22.51431487446761, -165.4573325420477, 57.85462322992294, 62.54175633223059 
-110.58246795532756, 17.885638390107893, 22.51485539362792, -166.23711577943882, 57.6439085475054, 62.54389780336163 
-111.4751796792493, 17.517304926030548, 22.51538412993342, -167.0139610654397, 57.43487191383883, 62.546029844974754 
-112.36682496055644, 17.15064606665358, 22.515900994113796, -167.78796220559803, 57.22754531572889, 62.54815183809348 
-113.25748849291014, 16.785748142891855, 22.51640591005664, -168.55921009840395, 57.02196020615544, 62.550263171125366 
-114.14725338138427, 16.42269692737236, 22.5168988147318, -169.3277928321002, 56.81814751731113, 62.55236324000151 
-115.03620112399686, 16.061577646900425, 22.51737965810029, -170.0937957779931, 56.61613767288986, 62.55445144830859 
-115.92441159384872, 15.702474993901884, 22.517848403007818, -170.85730168038694, 56.415960599660316, 62.556527207413346 
-116.81196302179553, 15.345473136818963, 22.51830502506321, -171.61839074326232, 56.217645738357994, 62.558589936579914 
-117.69893197958983, 14.99065572943885, 22.518749512501746, -172.37714071381671, 56.021222053927495, 62.56063906307957 
-118.5853933634342, 14.63810591913578, 22.519181866033897, -173.13362696298287, 55.82671804514546, 62.56267402229324 
-119.47142037789726, 14.28790635400886, 22.519602098679385, -173.88792256303898, 55.63416175365317, 62.56469425780673 
-120.3570845201483, 13.940139188899208, 22.520010235587097, -174.64009836242042, 55.44358077242633, 62.56669922149894 
-121.24245556447605, 13.594886090271627, 22.520406313840805, -175.39022305784115, 55.255002253708604, 62.56868837362271 
-122.12760154706122, 13.252228239947295, 22.520790382251327, -176.13836326382938, 55.06845291643382, 62.57066118287873 
-123.01258875098195, 12.9122463376754, 22.521162501135088, -176.8845835797792, 54.8839590531611, 62.57261712648269 
-123.89748169143469, 12.575020602533256, 22.52152274207966, -177.6289466546167, 54.70154653654573, 62.57455569022521 
-124.78234310116179, 12.240630773145487, 22.52187118769642, -178.37151324917653, 54.521240825367755, 62.576476368525476 
-125.6672339160815, 11.909156106714873, 22.522207931360768, -179.112342296381, 54.34306697013917, 62.57837866447791 
-126.55221326112253, 11.580675376858435, 22.52253307694026, -179.85149095931146, 54.167049618309974, 62.58026208989238 
-127.43733843627155, 11.255266870244098, 22.522846738510967, 179.41098531274136, 53.99321301909182, 62.582126165328205 
-128.3226649028459, 10.933008382024907, 22.523149040062535, 178.6750327301649, 53.821581027918064, 62.58397042012171 
-129.2082462700116, 10.613977210069118, 22.52344011519226, 177.9405991107692, 53.65217711055745, 62.585794392407635 
-130.0941342815689, 10.298250147986485, 22.52372010678866, 177.2076338293107, 53.48502434689834, 62.58759762913477 
-130.9803788030355, 9.985903476952291, 22.523989166704947, 176.47608776872022, 53.32014543441959, 62.58937968607558 
-131.86702780906032, 9.677012956333131, 22.524247455422785, 175.7459132729633, 53.15756269136349, 62.591140127830236 
-132.7541273712062, 9.371653813119426, 22.524495141706918, 175.0170641014626, 52.99729805962559, 62.59287852782492 
-133.64172164614382, 9.069900730172327, 22.524732402250997, 174.28949538501638, 52.839373107375685, 62.59459446830521 
-134.52985286430405, 8.771827833294106, 22.5249594213151, 173.56316358314763, 52.683809031423344, 62.59628754032372 
-135.4185613190391, 8.477508677133317, 22.525176390355515, 172.83802644282264, 52.53062665934147, 62.59795734372323 
-136.30788535634684, 8.18701622993806, 22.525383507647245, 172.1140429584789, 52.37984645136008, 62.59960348711455 
-137.19786136521657, 7.900422857172914, 22.525580977899576, 171.39117333330537, 52.23148850204273, 62.60122558785009 
-138.08852376865684, 7.617800304017209, 22.525769011865542, 170.66937894171969, 52.08557254175707, 62.60282327199267 
-138.9799050154706, 7.3392196767644124, 22.525947825945455, 169.94862229298982, 51.942117937950684, 62.60439617428019 
-139.87203557284286, 7.0647514231452515, 22.52611764178531, 169.22886699594906, 51.80114369624318, 62.605943938086305 
-140.76494391981245, 6.794465311598841, 22.526278685870377, 168.5100777247553, 51.66266846134475, 62.607466215376746 
-141.65865654169713, 6.5284304095191565, 22.5264311891147, 167.79222018564823, 51.526710517811324, 62.60896266666271 
-142.55319792554715, 6.266715060506304, 22.526575386446872, 167.07526108465933, 51.393287790645964, 62.61043296094989 
-143.4485905567011, 6.009386860654575, 22.526711516392826, 166.35916809623083, 51.262417845755714, 62.61187677568492 
-144.3448549165209, 5.756512633911948, 22.526839820655987, 165.643909832703, 51.1341178902731, 62.6132937966983 
-145.24200948138173, 5.5081584065481355, 22.526960543695488, 164.92945581462945, 51.008404772750715, 62.61468371814447 
-146.1400707229956, 5.2643893807710125, 22.527073932302972, 164.21577644188244, 50.88529498323747, 62.61604624243956 
-147.03905311014506, 5.025269907533462, 22.5271802351785, 163.50284296551138, 50.7648046532445, 62.6173810801961 
-147.93896911190438, 4.790863458575893, 22.527279702506146, 162.79062746031968, 50.64694955560851, 62.618687950155966 
-148.83982920242542, 4.561232597751546, 22.527372585529832, 162.07910279812575, 50.53174510426037, 62.619966579120984 
-149.74164186736263, 4.336438951684849, 22.527459136130048, 161.36824262167633, 50.419206353905764, 62.6212167018818 
-150.64441361201204, 4.116543179815138, 22.527539606401792, 160.65802131918068, 50.30934799962556, 62.62243806114506 
-151.54814897123552, 3.901604943880827, 22.527614248234617, 159.9484139994362, 50.20218437640226, 62.62363040745915 
-152.45285052124103, 3.691682876901339, 22.527683312894986, 159.2393964675167, 50.09772945857931, 62.62479349913895 
-153.35851889328475, 3.486834551716483, 22.52774705061175, 158.53094520099594, 49.995996859259684, 62.625927102189074 
-154.26515278935963, 3.2871164491452505, 22.5278057101652, 157.8230373266807, 49.89699982964988, 62.62703099022681 
-155.17274899993075, 3.092583925827943, 22.527859538480172, 157.11565059782725, 49.800751258355156, 62.628104944404306 
-156.0813024237729, 2.9032911818179126, 22.527908780223875, 156.4087633718181, 49.707263670631995, 62.629148753330114 
-156.99080608996314, 2.719291227990697, 22.5279536774089, 155.70235458827523, 49.616549227603166, 62.63016221299088 
-157.9012511820746, 2.540635853340336, 22.527994469001865, 154.99640374758755, 49.528619725440905, 62.6311451266728 
-158.81262706461337, 2.367375592234169, 22.52803139053838, 154.29089088983216, 49.44348659452326, 62.63209730488344 
-159.7249213117354, 2.1995596916988127, 22.52806467374468, 153.58579657406767, 49.361160898568755, 62.6330185652738 
-160.638119738272, 2.0372360788112274, 22.52809454616654, 152.881101857981, 49.28165333375398, 62.633908732560904 
-161.55220643308985, 1.8804513282699535, 22.528121230805887, 152.17678827786847, 49.204974227819086, 62.6347676384515 
-162.46716379480043, 1.7292506302222306, 22.5281449457656, 151.47283782893314, 49.131133539165326, 62.63559512156627 
-163.3829725698316, 1.5836777584234938, 22.528165903903066, 150.7692329458811, 49.0601408559491, 62.63639102736534 
-164.2996118928623, 1.4437750388059885, 22.52818431249279, 150.06595648379997, 48.99200539517675, 62.63715520807529 
-165.21705932961754, 1.3095833185334858, 22.528200372898603, 149.362991699304, 48.92673600180377, 62.637887522617156 
-166.135290922011, 1.1811419356188855, 22.528214280255924, 148.66032223192985, 48.86434114784261, 62.63858783653664 
-167.05428123561555, 1.0584886891811707, 22.52822622316443, 147.95793208576868, 48.804828931482454, 62.63925602193555 
-167.97400340943437, 0.941659810417497, 22.52823638339156, 147.25580561132017, 48.74820707622445, 62.63989195740558 
-168.89442920793658, 0.8306899343653557, 22.52824493558731, 146.5539274875551, 48.694482930036, 62.640495527964106 
-169.8155290753137, 0.7256120725285298, 22.528252047010575, 145.85228270417264, 48.64366346452687, 62.64106662499189 
-170.73727219190522, 0.6264575864391005, 22.528257877267496, 145.1508565440407, 48.59575527415044, 62.64160514617382 
-171.65962653273343, 0.5332561622260343, 22.528262578062204, 144.44963456580587, 48.55076457543282, 62.6421109954414 
-172.58255892807924, 0.4460357862589612, 22.52826629296008, 143.74860258666223, 48.50869720623246, 62.64258408291843 
-173.50603512602396, 0.3648227219333401, 22.528269157164097, 143.04774666526694, 48.46955862503289, 62.64302432486914 
-174.4300198568732, 0.289641487660765, 22.528271297304443, 142.3470530847918, 48.43335391027098, 62.643431643649514 
-175.35447689937263, 0.22051483612533218, 22.528272831241587, 141.64650833610008, 48.40008775970281, 62.64380596766092 
-176.2793691486169, 0.15746373486392679, 22.52827386788326, 140.946099101038, 48.36976448980927, 62.64414723130768 
-177.2046586855482, 0.10050734822498242, 22.528274507015425, 140.2458122358311, 48.34238803524345, 62.64445537495715 
-178.13030684793205, 0.04966302075671786, 22.52827483914758, 139.54563475457556, 48.317961948321276, 62.6447303449033 
-179.0562743026934, 0.004946262072172771, 22.5282749453725, 138.84555381281464, 48.296489398557284, 62.64497209333359 
-179.98252111949046, -0.03362926676574406, 22.528274897240657, 138.1455566911911, 48.277973172246725, 62.645180578299225 
179.09099315460278, -0.0660517652999819, 22.528274756649495, 137.44563077916672, 48.262415672095486, 62.64535576368889 
178.16430941943747, -0.09231130414112246, 22.528274575747723, 136.7457635587991, 48.249818916898846, 62.64549761920597 
177.237468945292, -0.11239983380475521, 22.528274396854606, 136.04594258856798, 48.240184541270054, 62.64560612034941 
176.31051329567535, -0.12631119189892615, 22.528274252394628, 135.3461554872415, 48.23351379541956, 62.64568124839802 
175.38348424957556, -0.13404110864052912, 22.528274164847335, 134.6463899177742, 48.229807544985526, 62.64572299039856 
174.45642372329968, -0.13558721068468774, 22.528274146712626, 133.94663357122826, 48.229066270916256, 62.64573133915756 
173.52937369205233, -0.1309490232557881, 22.528274200491456, 133.24687415070926, 48.23129006940466, 62.64570629323649 
172.60237611140246, -0.1201279705740188, 22.528274318681937, 132.54709935530852, 48.2364786518752, 62.64564785695103 
171.67547283878753, -0.10312737457608814, 22.528274483790987, 131.8472968640431, 48.24463134502318, 62.645556040373776 
170.74870555520386, -0.07995245193396447, 22.52827466836127, 131.14745431978548, 48.25574709090631, 62.6454308593406 
169.82211568723287, -0.05061030938025533, 22.52827483501369, 130.44755931317405, 48.26982444708832, 62.645272335460916 
168.89574432954856, -0.015109937353969453, 22.528274936505145, 129.74759936649656, 48.286861586834156, 62.64508049613141 
167.96963216805258, 0.02653779801480016, 22.52827491580152, 129.04756191753728, 48.30685629935614, 62.64485537455342 
167.04381940377834, 0.07432016455797122, 22.528274706165963, 128.34743430337977, 48.32980599011044, 62.64459700975393 
166.11834567770336, 0.12822257533228737, 22.52827423126205, 127.64720374415604, 48.355707681142874, 62.64430544661011 
165.19324999660464, 0.1882286014592746, 22.52827340527206, 126.94685732673376, 48.38455801148303, 62.643980735877285 
164.26857066008824, 0.25431998650538284, 22.52827213302981, 126.24638198833188, 48.4163532375855, 62.6436229342205 
163.34434518891806, 0.3264766623609753, 22.5282703101682, 125.5457645000555, 48.451089233816845, 62.64323210424913 
162.42061025476437, 0.4046767665730274, 22.528267823281134, 124.84499145034121, 48.48876149298682, 62.64280831455513 
161.4974016114868, 0.488896661082161, 22.52826455009954, 124.14404922830194, 48.52936512692212, 62.6423516397543 
160.57475402805895, 0.5791109523113733, 22.52826035968136, 123.44292400696268, 48.57289486708086, 62.641862160530614 
159.65270122323724, 0.6752925125501316, 22.528255112615284, 122.74160172637583, 48.61934506520576, 62.64133996368377 
158.73127580206668, 0.7774125025744082, 22.52824866123778, 122.0400680766062, 48.668709694014005, 62.64078514217942 
157.81050919431257, 0.8854403954403798, 22.52824084986333, 121.33830848057454, 48.7209823479213, 62.64019779520243 
156.89043159489583, 0.9993440013866564, 22.528231515027464, 120.63630807674848, 48.77615624379791, 62.639578028212675 
155.97107190640514, 1.1190894937776603, 22.52822048574229, 119.93405170166902, 48.834224221753715, 62.63892595300345 
155.05245768374868, 1.2446414360186169, 22.528207583764143, 119.23152387230114, 48.89517874595003, 62.638241687762346 
154.13461508100235, 1.3759628093706018, 22.528192623873096, 118.52870876819513, 48.95901190543464, 62.63752535713444 
153.21756880050117, 1.5130150415927306, 22.528175414163858, 117.82559021344672, 49.02571541499761, 62.63677709228756 
152.3013420442147, 1.655758036337033, 22.52815575634773, 117.12215165844161, 49.095280616044064, 62.63599703097967 
151.3859564674374, 1.8041502032207244, 22.528133446065176, 116.41837616137168, 49.16769847748093, 62.63518531762811 
150.47143213481795, 1.9581484884996256, 22.528108273208677, 115.7142463695069, 49.242959596613844, 62.63434210338048 
149.5577874787433, 2.1177084062660954, 22.528080022255352, 115.00974450020925, 49.32105420005065, 62.63346754618712 
148.64503926008555, 2.2827840700946247, 22.528048472608923, 114.30485232167216, 49.401972144607534, 62.63256181087493 
147.7332025313122, 2.4533282250580664, 22.528013398950627, 113.59955113336937, 49.48570291821366, 62.63162506922251 
146.8222906019533, 2.6292922800380025, 22.52797457159854, 112.89382174619651, 49.572235640810305, 62.63065750003626 
145.91231500641098, 2.8106263402530405, 22.527931756874892, 112.18764446228708, 49.66155906523981, 62.62965928922715 
145.00328547409205, 2.9972792399295605, 22.52788471748082, 111.48099905448528, 49.75366157812009, 62.628630629888576 
144.0952099018349, 3.1891985750405243, 22.527833212878214, 110.77386474545548, 49.84853120069971, 62.627571722374306 
143.1880943285992, 3.386330736038933, 22.52777699967788, 110.06622018640934, 49.94615558968882, 62.62648277437689 
142.28194291237824, 3.588620940513901, 22.52771583203383, 109.35804343542877, 50.04652203806059, 62.62536400100624 
141.3767579092901, 3.796013265698813, 22.527649462042923, 108.6493119353639, 50.149617475818225, 62.62421562486785 
140.4725396547977, 4.008450680762827, 22.527577640149463, 107.94000249128253, 50.25542847072182, 62.62303787614105 
139.5692865470046, 4.225875078818465, 22.527500115554176, 107.23009124744807, 50.363941228969374, 62.62183099265649 
138.66699503196693, 4.448227308580474, 22.527416636627052, 106.51955366380092, 50.475141595826365, 62.62059521997305 
137.76565959096064, 4.6754472056127385, 22.52732695132344, 105.80836449191783, 50.58901505619756, 62.61933081145386 
136.8652727296378, 4.907473623102547, 22.527230807602965, 105.09649775042239, 50.70554673513493, 62.61803802834106 
135.96582496900385, 5.1442444621036945, 22.527127953850567, 104.38392669981843, 50.824721398275074, 62.61671713982944 
135.06730483814454, 5.385696701192125, 22.527018139299265, 103.67062381671768, 50.94652345219961, 62.615368423138314 
134.16969886863015, 5.631766425480551, 22.526901114453945, 102.95656076743083, 51.070936944711406, 62.613992163582026 
133.27299159052134, 5.8823888549405785, 22.52677663151573, 102.24170838089069, 51.19794556501957, 62.6125886546379 
132.37716552990125, 6.137498371983881, 22.52664444480624, 101.52603662087402, 51.32753264382578, 62.6111581980127 
131.4822012078566, 6.3970285482558875, 22.526504311191374, 100.80951455748813, 51.459681153304196, 62.609701103706335 
130.58807714083062, 6.660912170598811, 22.526355990503852, 100.09211033788557, 51.594373706967055, 62.6082176900729 
129.69476984227032, 6.929081266142572, 22.52619924596407, 99.37379115617058, 51.731592559407716, 62.60670828387925 
128.80225382549045, 7.201467126485572, 22.526033844598736, 98.65452322245712, 51.871319605912625, 62.60517322036053 
127.91050160767841, 7.47800033092915, 22.52585955765663, 97.9342717310387, 52.01353638193323, 62.603612843272074 
127.01948371496422, 7.758610768732558, 22.525676161021057, 97.21300082762752, 52.158224062409005, 62.602027504938604 
126.12916868848085, 8.04322766035775, 22.52548343561835, 96.49067357561833, 52.30536346093176, 62.60041756629909 
125.23952309134367, 8.33177957767542, 22.525281167821948, 95.7672519213317, 52.45493502874158, 62.598783396948576 
124.35051151647741, 8.624194463106745, 22.52506914985148, 95.04269665818848, 52.60691885354428, 62.59712537517521 
123.46209659522285, 8.920399647677113, 22.52484718016636, 94.31696738976571, 52.76129465813942, 62.59544388799384 
122.57423900665795, 9.22032186796097, 22.52461506385331, 93.5900224916821, 52.91804179884842, 62.593739331174596 
121.6868974875702, 9.52388728189871, 22.5243726130074, 92.86181907225927, 53.07713926373079, 62.59201210926734 
120.80002884302088, 9.831021483469318, 22.52411964710597, 92.13231293190202, 53.238565670577124, 62.59026263562115 
119.91358795744503, 10.14164951620407, 22.52385599337501, 91.40145852114009, 53.402299264666055, 62.58849133239895 
119.02752780623429, 10.455695885529254, 22.523581487147585, 90.66920889726964, 53.56831791627274, 62.58669863058706 
118.14179946775413, 10.77308456992742, 22.523295972213656, 89.93551567953199, 53.736599117915176, 62.58488496999932 
117.25635213575079, 11.09373903090904, 22.522999301160915, 89.20032900276355, 53.9071199813246, 62.58305079927591 
116.37113313210726, 11.417582221788221, 22.52269133570626, 88.46359746944869, 54.07985723412553, 62.581196575876646 
115.48608791991269, 11.744536595257784, 22.522371947017312, 87.72526810010507, 54.254787216210126, 62.57932276606833 
114.60116011681394, 12.074524109761306, 22.522041016023653, 86.98528628192706, 54.43188587579131, 62.5774298449062 
113.71629150862303, 12.407466234660776, 22.521698433717297, 86.2435957156118, 54.61112876511804, 62.575518296209474 
112.83142206315881, 12.743283954200955, 22.521344101442036, 85.50013836028793, 54.79249103583575, 62.573588612530635 
111.94648994430744, 13.081897770272425, 22.520977931171252, 84.75485437646553, 54.97594743397373, 62.571641295118404 
111.06143152629063, 13.423227703977517, 22.520599845773763, 84.0076820669217, 55.16147229454104, 62.56967685387403 
110.17618140813676, 13.767193296004407, 22.520209779267446, 83.25855781543414, 55.3490395357112, 62.567695807301526 
109.29067242835585, 14.113713605816347, 22.519807677060193, 82.50741602327179, 55.53862265257504, 62.5656986824506 
108.40483567982473, 14.462707209664654, 22.519393496177848, 81.75418904334768, 55.73019471044058, 62.56368601485332 
107.51860052489577, 14.814092197435045, 22.51896720547895, 80.99880711193825, 55.923728337657266, 62.56165834845347 
106.6318946107478, 15.167786168338935, 22.518528785855803, 80.24119827786741, 56.119195717941196, 62.559616235529305 
105.74464388500559, 15.523706225462192, 22.51807823042168, 79.48128832905337, 56.31656858217663, 62.55756023660888 
104.85677261165944, 15.881768969185758, 22.51761554468385, 78.71900071631129, 56.515818199668246, 62.55549092037846 
