# MEX_intpoint_lon [deg], MEX_intpoint_lat [deg], MEX_intpoint_angle [deg], TGO_intpoint_lon [deg], TGO_intpoint_lat [deg], TGO_intpoint_angle [deg] 
-103.86210695138195, 20.40179729581343, 22.254522662874617, -145.98458327425524, 58.985547237552595, 62.53034503031783 
-104.77251916564711, 20.037650402698247, 22.255100039759533, -146.77491266090234, 58.76051008651094, 62.53258617306162 
-105.68124408621726, 19.674483181654953, 22.255667324002715, -147.5617497948106, 58.53700269510524, 62.534821454288924 
-106.58837134232435, 19.312384756744915, 22.256224354864553, -148.3452083370414, 58.31506034992205, 62.53705019729845 
-107.49398929566718, 18.951443595661576, 22.256770983822893, -149.12539828048054, 58.09471772042348, 62.53927173212451 
-108.39818501087063, 18.591747525428502, 22.25730707459269, -149.90242607823265, 57.876008877221935, 62.541485395725196 
-109.30104422741782, 18.233383747424384, 22.257832503130707, -150.67639476717045, 57.658967309327814, 62.54369053216318 
-110.20265133293147, 17.876438851697273, 22.258347157625682, -151.44740408680403, 57.44362594042004, 62.54588649277828 
-111.10308933769096, 17.520998830532157, 22.25885093847375, -152.21555059363664, 57.23001714418665, 62.54807263635229 
-112.00243985027748, 17.16714909123879, 22.25934375823919, -152.98092777116875, 57.01817275878027, 62.55024832926597 
-112.90078305424866, 16.814974468128007, 22.259825541600897, -153.7436261357117, 56.80812410043132, 62.55241294564796 
-113.79819768575145, 16.46455923364762, 22.260296225284247, -154.5037333381675, 56.599901976259694, 62.554565867516 
-114.69476101198867, 16.115987108650188, 22.260755757978796, -155.26133426192862, 56.39353669632325, 62.55670648491016 
-115.59054881046343, 15.769341271767047, 22.26120410024193, -156.01651111704874, 56.18905808494005, 62.558834196018395 
-116.485635348931, 15.424704367864962, 22.26164122438841, -156.76934353082942, 55.98649549131931, 62.560948407294056 
-117.3800933659959, 15.082158515562929, 22.262067114366292, -157.51990863496604, 55.785877799534155, 62.56304853356599 
-118.27399405229859, 14.741785313788874, 22.26248176561916, -158.26828114939076, 55.587233437867866, 62.56513399814049 
-119.1674070322421, 14.403665847357178, 22.262885184935016, -159.01453346294613, 55.39059038756383, 62.567204232896195 
-120.06040034621591, 14.067880691549773, 22.26327739028206, -159.7587357110196, 55.19597619100755, 62.56925867837087 
-120.95304043328154, 13.7345099156849, 22.263658410631482, -160.50095585026386, 55.003417959368335, 62.57129678384117 
-121.84539211428783, 13.40363308565936, 22.264028285767733, -161.24125973052452, 54.81294237972639, 62.57331800739467 
-122.73751857539372, 13.075329265451488, 22.264387066086268, -161.97971116409198, 54.62457572171026, 62.575321815994734 
-123.62948135197817, 12.749677017573568, 22.264734812379324, -162.71637199239038, 54.438343843668065, 62.5773076855384 
-124.52134031292587, 12.426754402463958, 22.265071595609843, -163.4513021502126, 54.254272198395235, 62.579275100906706 
-125.41315364528079, 12.106638976810848, 22.26539749667397, -164.18455972760594, 54.07238583843998, 62.581223556008595 
-126.30497783926555, 11.789407790800977, 22.26571260615237, -164.91620102950918, 53.89270942100729, 62.58315255381753 
-127.19686767367054, 11.475137384288093, 22.26601702405075, -165.6462806332385, 53.715267212480846, 62.58506160640182 
-128.08887620162042, 11.16390378187801, 22.266310859530023, -166.3748514439154, 53.540083092581604, 62.586950234947935 
-128.98105473673178, 10.855782486928055, 22.26659423062624, -167.10196474792613, 53.36718055818097, 62.58881796977774 
-129.87345283967915, 10.550848474461128, 22.266867263961014, -167.8276702644992, 53.196582726785756, 62.590664350359425 
-130.76611830519278, 10.249176182995571, 22.26713009444252, -168.55201619548362, 53.028312339711064, 62.592488925312225 
-131.65909714951363, 9.950839505294397, 22.26738286495762, -169.27504927340706, 52.86239176495709, 62.59429125240505 
-132.55243359833787, 9.65591177803874, 22.26762572605558, -169.996814807891, 52.69884299980464, 62.5960708985498 
-133.4461700752847, 9.36446577043269, 22.267858835623635, -170.71735673049525, 52.53768767314394, 62.59782743978848 
-134.34034719092648, 9.076573671748081, 22.268082358555027, -171.4367176380625, 52.37894704755041, 62.5995604612755 
-135.23500373242354, 8.792307077820135, 22.268296466409822, -172.15493883463057, 52.222642021120784, 62.60126955725416 
-136.1301766538094, 8.511736976506514, 22.268501337068997, -172.8720603719763, 52.0687931290823, 62.60295433102862 
-137.02590106697403, 8.234933732124809, 22.268697154382302, -173.58812108885365, 51.91742054518714, 62.60461439493051 
-137.9222102333983, 7.961967068884953, 22.2688841078103, -174.3031586489851, 51.7685440829041, 62.6062493702812 
-138.81913555669257, 7.692906053335676, 22.269062392061166, -175.01720957786338, 51.62218319641842, 62.60785888734958 
-139.71670657599645, 7.427819075846153, 22.2692322067225, -175.7303092984179, 51.478356981451164, 62.60944258530547 
-140.61495096029913, 7.16677383114594, 22.269393755889002, -176.4424921655986, 51.33708417590828, 62.6110001121691 
-141.51389450373966, 6.909837297948914, 22.26954724778614, -177.15379149992683, 51.19838316036964, 62.6125311247565 
-142.41356112195035, 6.657075717688865, 22.269692894390527, -177.86423962006157, 51.06227195842777, 62.61403528862175 
-143.31397284950668, 6.4085545723968975, 22.26983091104745, -178.5738678744268, 50.92876823688571, 62.61551227799521 
-144.21514983854777, 6.164338561752877, 22.269961516086088, -179.2827066719441, 50.79788930582294, 62.61696177571911 
-145.1171103586328, 5.924491579345748, 22.270084930432823, -179.99078551191283, 50.669652118538465, 62.6183834731797 
-146.01987079789888, 5.689076688179608, 22.27020137722328, 179.30186698692228, 50.54407327137904, 62.61977707023702 
-146.92344566558575, 5.458156095464819, 22.270311081413592, 178.59522305807636, 50.42116900346126, 62.621142275151904 
-147.82784759599252, 5.231791126735841, 22.270414269391285, 177.88925575976685, 50.300955196294964, 62.62247880451072 
-148.73308735393078, 5.010042199339544, 22.270511168586467, 177.1839389480564, 50.18344737331575, 62.62378638314809 
-149.63917384173746, 4.792968795340234, 22.270602007083703, 176.47924725066298, 50.06866069933414, 62.62506474406761 
-150.54611410790966, 4.580629433889523, 22.27068701323513, 175.7751560414044, 49.9566099799083, 62.62631362836104 
-151.45391335742124, 4.373081643111771, 22.270766415275386, 175.07164141524638, 49.8473096606473, 62.627532785126064 
-152.36257496377976, 4.170381931557329, 22.270840440938752, 174.36868016392398, 49.74077382645171, 62.6287219713827 
-153.27210048287867, 3.9725857592784237, 22.270909317079067, 173.66624975210794, 49.63701620069772, 62.62988095198895 
-154.18248966869797, 3.7797475085840393, 22.27097326929294, 172.9643282940892, 49.53605014437136, 62.63100949955547 
-155.0937404909026, 3.5919204545320547, 22.271032521546758, 172.26289453095416, 49.437888655158595, 62.63210739435984 
-156.00584915438407, 3.4091567352188434, 22.271087295807884, 171.56192780822707, 49.342544366497265, 62.633174424260375 
-156.91881012078747, 3.2315073219278303, 22.271137811680664, 170.86140805395453, 49.250029546596416, 62.634210384610064 
-157.83261613206167, 3.059021989200168, 22.27118428604769, 170.1613157572095, 49.16035609742866, 62.63521507817018 
-158.74725823606443, 2.891749284891977, 22.271226932716658, 169.46163194699307, 49.07353555370061, 62.636188315024626 
-159.662725814252, 2.7297365002836904, 22.271265962073574, 168.76233817151228, 48.989579081806504, 62.63712991249439 
-160.57900661147463, 2.5730296403081803, 22.271301580742414, 168.0634164778145, 48.90849747877013, 62.638039695053145 
-161.4960867678951, 2.4216733939650283, 22.271333991252018, 167.36484939175844, 48.830301171179556, 62.6389174942432 
-162.4139508530424, 2.275711104989054, 22.271363391710377, 166.66661989830388, 48.7550002141192, 62.63976314859306 
-163.332581902005, 2.1351847428416177, 22.271389975487004, 165.9687114221018, 48.68260429010384, 62.64057650353596 
-164.2519614537627, 2.0001348740933174, 22.271413930903588, 165.27110780836796, 48.61312270801866, 62.641357411329885 
-165.17206959164955, 1.870600634267126, 22.271435440933452, 164.57379330402438, 48.546564402069144, 62.64210573097948 
-166.09288498593386, 1.746619700210256, 22.271454682910264, 163.87675253909157, 48.48293793074521, 62.64282132815929 
-167.01438493849378, 1.628228263063121, 22.27147182824616, 163.17997050831806, 48.42225147580279, 62.64350407513963 
-167.93654542956088, 1.5154610018927992, 22.271487042160036, 162.48343255303175, 48.36451284126665, 62.64415385071402 
-168.85934116649682, 1.408351058057712, 22.271500483415945, 161.78712434319957, 48.30972945245798, 62.644770540129244 
-169.78274563456117, 1.3069300103689583, 22.271512304072253, 161.09103185968206, 48.257908355049544, 62.64535403501787 
-170.70673114962165, 1.211227851112503, 22.271522649241707, 160.3951413766701, 48.20905621415194, 62.64590423333325 
-171.63126891275104, 1.1212729629947844, 22.271531656862933, 159.69943944429144, 48.16317931343357, 62.646421039287326 
-172.55632906664815, 1.0370920970723825, 22.271539457483357, 159.00391287137487, 48.12028355427717, 62.64690436329135 
-173.48188075381339, 0.9587103517245616, 22.27154617405421, 158.30854870836092, 48.08037445497553, 62.64735412189958 
-174.40789217640352, 0.8861511527248649, 22.271551921737522, 157.61333423034762, 48.0434571499687, 62.64777023775618 
-175.33433065768244, 0.8194362344657429, 22.271556807725684, 156.91825692026094, 48.009536389125095, 62.64815263954509 
-176.26116270498053, 0.75858562238722, 22.271560931073612, 156.22330445213905, 47.97861653706859, 62.64850126194362 
-177.1883540740678, 0.7036176166577844, 22.271564382543755, 155.52846467452082, 47.95070157255338, 62.64881604557935 
-178.1158698348407, 0.6545487771525254, 22.271567244464286, 154.83372559392828, 47.92579508788869, 62.64909693699034 
-179.04367443821832, 0.6113939097700629, 22.271569590600492, 154.1390753584339, 47.903900288414775, 62.649343888589286 
-179.97173178413738, 0.5741660541265988, 22.271571486039687, 153.4445022413029, 47.88501999203164, 62.64955685863118 
179.0999947094682, 0.5428764726613777, 22.271572987089634, 152.74999462470197, 47.86915662878201, 62.649735811184804 
178.17154203682097, 0.5175346411842582, 22.271574141190808, 152.05554098346516, 47.85631224048951, 62.64988071610797 
177.24294753370967, 0.49814824089217713, 22.271574986842474, 151.3611298689083, 47.84648848045318, 62.64999154902672 
176.31424880627924, 0.48472315187688525, 22.271575553542682, 150.66674989268319, 47.839686613199, 62.65006829131833 
175.38548365932883, 0.4772634481426413, 22.27157586174237, 149.97238971066315, 47.83590751428939, 62.650110930098506 
174.4566900242474, 0.47577139414780684, 22.271575922813476, 149.27803800685172, 47.83515167019081, 62.65011945821214 
173.52790588671826, 0.4802474428803603, 22.271575739031285, 148.58368347730547, 47.83741917820026, 62.650093874228475 
172.59916921432372, 0.49069023547269125, 22.271575303570845, 147.88931481406354, 47.84270974643047, 62.650034182440066 
171.67051788418345, 0.507096602356888, 22.271574600517628, 147.19492068907465, 47.85102269385412, 62.64994039286573 
170.741989610758, 0.529461565957111, 22.271573604892282, 146.50048973811406, 47.86235695040682, 62.64981252125764 
169.8136218739491, 0.5577783449114764, 22.271572282689522, 145.80601054468167, 47.87671105714862, 62.6496505891122 
168.885451847628, 0.5920383598113668, 22.271570590931116, 145.11147162387286, 47.89408316648353, 62.64945462368518 
167.95751632871915, 0.6322312404419069, 22.271568477732817, 144.41686140621405, 47.91447104243665, 62.6492246580104 
167.02985166696666, 0.6783448345030132, 22.271565882385282, 143.7221682214539, 47.93787206098791, 62.64896073092265 
166.10249369550627, 0.730365217786485, 22.27156273544864, 143.0273802823015, 47.964283210461616, 62.64866288708432 
165.17547766236353, 0.7882767057802939, 22.271558958860936, 142.33248566810332, 47.99370109197081, 62.64833117701569 
164.24883816299416, 0.8520618666676605, 22.271554466059964, 141.637472308449, 48.026121919915035, 62.64796565712929 
163.32260907397924, 0.9217015356845005, 22.271549162118465, 140.94232796669735, 48.06154152253016, 62.64756638976745 
162.39682348798198, 0.9971748307953343, 22.271542943892623, 140.24704022341322, 48.0999553424889, 62.647133443243966 
161.47151365006994, 1.0784591696443333, 22.271535700183428, 139.55159645970497, 48.14135843754996, 62.64666689188872 
160.54671089549817, 1.1655302877348754, 22.27152731191094, 138.85598384045298, 48.18574548125427, 62.64616681609611 
159.62244558904573, 1.2583622577879994, 22.271517652300922, 138.16018929741955, 48.233110763666076, 62.645633302376474 
158.69874706599083, 1.3569275102272342, 22.271506587083977, 137.46419951222782, 48.28344819215675, 62.64506644341103 
157.77564357480338, 1.4611968547346879, 22.27149397470656, 136.76800089920133, 48.336751292229, 62.64446633810949 
156.85316222162785, 1.5711395028208757, 22.271479666553812, 136.07157958805018, 48.393013208378996, 62.643833091671006 
155.9313289166222, 1.6867230913485065, 22.271463507183864, 135.3749214063947, 48.452226704993485, 62.64316681564757 
155.01016832221245, 1.8079137069486988, 22.271445334573215, 134.67801186211227, 48.51438416727964, 62.64246762801042 
154.08970380331462, 1.934675911266035, 22.271424980372974, 133.98083612549638, 48.57947760222388, 62.641735653218824 
153.16995737956992, 2.0669727669677767, 22.271402270175653, 133.28337901121367, 48.64749863957724, 62.64097102229104 
152.25094967963122, 2.204765864451052, 22.271377023791924, 132.5856249600462, 48.71843853286356, 62.64017387287814 
151.33269989753214, 2.3480153491808995, 22.271349055537275, 131.8875580204041, 48.792288160407004, 62.63934434933911 
150.41522575116355, 2.4966799495913445, 22.271318174527988, 131.18916182959447, 48.869038026375655, 62.63848260281846 
149.49854344287465, 2.6507170054810634, 22.271284184986108, 130.4904195948308, 48.94867826183691, 62.637588791325214 
148.58266762220987, 2.8100824968349816, 22.27124688655301, 129.79131407396693, 49.03119862582107, 62.63666307981369 
147.66761135078573, 2.974731073002954, 22.271206074611083, 129.09182755593918, 49.11658850638877, 62.63570564026554 
146.75338606930595, 3.144616082166877, 22.271161540613246, 128.391941840899, 49.20483692169819, 62.63471665177286 
145.8400015667057, 3.3196896010280037, 22.2711130724197, 127.69163822001788, 49.295932521067236, 62.6336963006226 
144.92746595141207, 3.4999024646465524, 22.271060454641514, 126.99089745494624, 49.38986358602646, 62.632644780381426 
144.01578562469956, 3.685204296366709, 22.271003468990745, 126.2896997569054, 49.48661803135756, 62.6315622919815 
143.10496525611637, 3.875543537760781, 22.270941894636344, 125.58802476539356, 49.586183406112696, 62.63044904380641 
142.19500776095012, 4.070867478527558, 22.270875508565634, 124.88585152648254, 49.6885468946093, 62.62930525177736 
141.2859142796986, 4.271122286281039, 22.270804085950736, 124.18315847068426, 49.79369531739512, 62.628131139439525 
140.3776841595051, 4.47625303616719, 22.270727400519558, 123.47992339036276, 49.90161513217791, 62.626926938047866 
139.470314937515, 4.686203740247773, 22.27064522493072, 122.7761234166672, 50.012292434714034, 62.62569288665276 
138.5638023261057, 4.900917376592215, 22.270557331152055, 122.0717349959605, 50.125712959650095, 62.62442923218487 
137.65814019993863, 5.120335918019951, 22.270463490842193, 121.36673386571687, 50.241862081311304, 62.623136229539114 
136.7533205847799, 5.344400360437741, 22.270363475734506, 120.66109502986028, 50.36072481443037, 62.6218141416576 
135.8493336480318, 5.573050750718552, 22.270257058023212, 119.95479273351431, 50.48228581481047, 62.62046323961123 
134.9461676909166, 5.8062262140701755, 22.27014401075093, 119.24780043713368, 50.60652937991503, 62.619083802679675 
134.04380914225155, 6.043864980844545, 22.27002410819718, 118.54009078998473, 50.73343944937795, 62.61767611842984 
133.14224255375174, 6.285904412740226, 22.269897126267484, 117.83163560294267, 50.862999605426424, 62.61624048279202 
132.24145059679765, 6.53228102835334, 22.269762842882244, 117.12240582056958, 50.9951930732093, 62.61477720013406 
131.34141406060206, 6.782930528033964, 22.269621038365294, 116.41237149243841, 51.130002721022834, 62.61328658333314 
130.44211185171088, 7.037787818007773, 22.269471495831137, 115.70150174366364, 51.26741106042611, 62.611768953844624 
129.54352099477308, 7.296787033724575, 22.269314001570876, 114.98976474460032, 51.40740024623765, 62.61022464176849 
128.6456166345136, 7.559861562398135, 22.26914834543583, 114.27712767966932, 51.549952076404566, 62.60865398591215 
127.74837203884456, 7.826944064703526, 22.26897432121865, 113.56355671526616, 51.695047991735436, 62.607057333850435 
126.85175860305147, 8.097966495600987, 22.268791727031385, 112.84901696670848, 51.84266907548768, 62.605435041981806 
125.9557458549903, 8.372860124257357, 22.268600365679852, 112.13347246417455, 51.992796052799655, 62.603787475580795 
125.06030146123537, 8.651555553038277, 22.268400045033957, 111.4168861175849, 52.1454092899578, 62.60211500884673 
124.16539123411692, 8.933982735546964, 22.268190578393472, 110.69921968037447, 52.300488793488334, 62.60041802494809 
123.27097913959192, 9.220070993687223, 22.267971784848623, 109.9804337121034, 52.45801420906292, 62.5986969160625 
122.3770273058915, 9.509749033730778, 22.26774348963526, 109.26048753984925, 52.61796482020697, 62.59695208341246 
121.48349603289323, 9.802944961370953, 22.2675055244839, 108.53933921832382, 52.78031954679949, 62.59518393729588 
120.59034380216677, 10.099586295747054, 22.26725772796235, 107.81694548865278, 52.94505694335182, 62.59339289711191 
119.69752728764726, 10.399599982425569, 22.26699994581131, 107.09326173575577, 53.112155197053426, 62.59157939138178 
118.80500136689095, 10.70291240532663, 22.266732031272674, 106.36824194426025, 53.28159212557124, 62.58974385776374 
117.91271913287392, 11.00944939758586, 22.2664538454099, 105.64183865288065, 53.453345174589266, 62.58788674306326 
117.02063190629643, 11.319136251343712, 22.26616525742016, 104.9140029071912, 53.62739141507429, 62.58600850323684 
116.12868924836006, 11.63189772645653, 22.26586614493782, 104.1846842107173, 53.80370754025298, 62.584109603390495 
115.23683897398897, 11.947658058124796, 22.265556394328787, 103.45383047426792, 53.982269862284866, 62.5821905177717 
114.34502716547053, 12.266340963436566, 22.265235900975387, 102.72138796342759, 54.16305430861546, 62.58025172975565 
113.45319818649519, 12.587869646824977, 22.264904569551312, 101.9873012441238, 54.346036417992515, 62.5782937318248 
112.56129469658002, 12.912166804441265, 22.264562314286415, 101.25151312618144, 54.53119133612811, 62.57631702554211 
111.6692576658653, 13.239154627445538, 22.264209059220754, 100.51396460477332, 54.71849381098803, 62.57432212151769 
110.77702639027798, 13.56875480421991, 22.263844738447748, 99.774594799671, 54.9079181876896, 62.572309539368284 
109.88453850706154, 13.900888521509575, 22.263469296346038, 99.03334089219739, 55.099438402987644, 62.570279807670524 
108.99173001067703, 14.235476464499403, 22.263082687799624, 98.29013805977827, 55.29302797932779, 62.56823346390658 
108.09853526908465, 14.572438815834994, 22.262684878406187, 97.54491940798546, 55.488660018445, 62.56617105440294 
107.20488704042212, 14.911695253598511, 22.262275844673095, 96.79761589996161, 55.68630719448429, 62.5640931342618 
106.31071649010073, 15.253164948251518, 22.26185557420089, 96.04815628311096, 55.885941746619615, 62.56200026728541 
105.41595320834665, 15.596766558558159, 22.261424065854072, 95.29646701293743, 56.0875354711452, 62.55989302589268 
104.52052522822049, 15.942418226503793, 22.260981329918764, 94.54247217390642, 56.29105971301318, 62.5577719910283 
