# MEX_intpoint_lon [deg], MEX_intpoint_lat [deg], MEX_intpoint_angle [deg], TGO_intpoint_lon [deg], TGO_intpoint_lat [deg], TGO_intpoint_angle [deg] 
-104.80537926574806, 20.61818555592741, 22.82203325922612, -179.4264119763402, 58.80616183797344, 62.53598313318865 
-105.6983748437731, 20.22469231274478, 22.822679919016355, 179.79325027526406, 58.57591254258234, 62.538284483751994 
-106.5896605936486, 19.832343290440164, 22.82331451010665, 179.01631529448002, 58.347252000955756, 62.540579652630626 
-107.47933835663, 19.441230738855623, 22.823936853645403, 178.24266961701284, 58.12021522266662, 62.54286794526893 
-108.36750833198623, 19.051446223304605, 22.824546785394816, 177.4722035371926, 57.894836616259326, 62.54514867422559 
-109.2542690575203, 18.663080647271542, 22.82514415575038, 176.7048109717027, 57.67115000727935, 62.54742115936638 
-110.13971739122745, 18.27622427411275, 22.825728829742733, 175.94038932877731, 57.44918865525412, 62.549684728048454 
-111.02394849394632, 17.890966747726832, 22.826300687021874, 175.17883938265567, 57.228985269677814, 62.551938715296714 
-111.90705581287132, 17.507397112163844, 22.82685962182392, 174.42006515308273, 57.0105720250498, 62.55418246397135 
-112.78913106580333, 17.125603830145533, 22.827405542920385, 173.66397378965422, 56.79398057501427, 62.55641532492742 
-113.6702642260272, 16.745674800469867, 22.827938373550136, 172.91047546080713, 56.579242065645694, 62.55863665716588 
-114.55054350771421, 16.367697374275426, 22.828458051334177, 172.15948324726492, 56.36638714792265, 62.56084582797647 
-115.4300553517567, 15.991758370142673, 22.828964528173376, 171.4109130397505, 56.15544598943043, 62.563042213072144 
-116.30888441195236, 15.617944088010288, 22.82945777012933, 170.66468344078822, 55.94644828533046, 62.565225196715375 
-117.18711354146356, 15.246340321886885, 22.829937757288548, 169.9207156704201, 55.73942326863303, 62.56739417183601 
-118.06482377948664, 14.877032371339117, 22.830404483610156, 169.17893347566957, 55.53439971980749, 62.569548540141305 
-118.94209433807426, 14.510105051739027, 22.8308579567574, 168.4392630435911, 55.33140597576287, 62.57168771221753 
-119.81900258906168, 14.145642703254424, 22.831298197913135, 167.70163291774887, 55.13046993822966, 62.57381110762372 
-120.6956240510562, 13.783729198567666, 22.83172524157962, 166.96597391797678, 54.93161908157246, 62.575918154977366 
-121.57203237645673, 13.424447949309094, 22.83213913536285, 166.23221906327385, 54.73488046006135, 62.57800829203232 
-122.44829933847748, 13.067881911193126, 22.832539939741846, 165.50030349769781, 54.540280714628715, 62.5800809657488 
-123.3244948181572, 12.714113587845612, 22.832927727823055, 164.7701644191237, 54.3478460791368, 62.582135632355914 
-124.20068679134249, 12.363225033313121, 22.83330258508039, 164.04174101073957, 54.15760238618014, 62.58417175740625 
-125.07694131564055, 12.015297853245238, 22.833664609081115, 163.31497437515745, 53.96957507244575, 62.58618881582356 
-125.953322517343, 11.6704132047432, 22.83401390919806, 162.5898074710216, 53.78378918365313, 62.588186291942606 
-126.82989257832917, 11.328651794868755, 22.834350606308515, 161.86618505200232, 53.60026937909471, 62.59016367954211 
-127.7067117229636, 10.990093877809086, 22.834674832480147, 161.14405360806654, 53.419039935796775, 62.59212048187051 
-128.5838382050078, 10.654819250694981, 22.83498673064458, 160.42336130892267, 53.24012475231977, 62.594056211665006 
-129.46132829457338, 10.322907248070775, 22.835286454258767, 159.70405794954036, 53.063547352216204, 62.59597039116372 
-130.33923626514797, 9.994436735016574, 22.835574166954935, 158.98609489765056, 52.88933088716335, 62.59786255211126 
-131.21761438073216, 9.669486098924494, 22.835850042179253, 158.2694250431351, 52.71749813978742, 62.599732235757884 
-132.09651288312952, 9.348133239932972, 22.836114262820026, 157.55400274921934, 52.54807152619499, 62.60157899285264 
-132.97597997943882, 9.030455560024363, 22.836367020825634, 156.83978380538395, 52.38107309822678, 62.60340238363001 
-133.85606182979978, 8.71652995079364, 22.836608516812905, 156.12672538191745, 52.21652454544857, 62.60520197779121 
-134.73680253545135, 8.406432779897562, 22.836838959666366, 155.41478598603277, 52.05444719689289, 62.606977354479376 
-135.61824412716345, 8.100239876195872, 22.837058566128903, 154.70392541947484, 51.894862022565, 62.60872810224949 
-136.50042655410869, 7.798026513598428, 22.83726756038443, 153.9941047375507, 51.73778963472602, 62.610453819033054 
-137.3833876732443, 7.499867393634278, 22.837466173633008, 153.2852862095142, 51.5832502889654, 62.61215411209739 
-138.26716323927783, 7.205836626761104, 22.83765464365913, 152.57743328024267, 51.431263885074806, 62.61382859800058 
-139.15178689529424, 6.916007712435785, 22.837833214393576, 151.8705105331443, 51.28184996773452, 62.61547690254122 
-140.0372901641243, 6.6304535179696895, 22.838002135469562, 151.16448365423827, 51.13502772702355, 62.617098660704144 
-140.92370244053816, 6.349246256194353, 22.83816166177364, 150.45931939735112, 50.990815998763935, 62.61869351660162 
-141.81105098434963, 6.072457461966459, 22.838312052992077, 149.75498555037774, 50.84923326470938, 62.62026112341093 
-142.6993609145187, 5.800157967543314, 22.838453573153163, 149.0514509025543, 50.7102976525882, 62.62180114330775 
-143.58865520434298, 5.5324178768630725, 22.83858649016615, 148.3486852126963, 50.57402693600968, 62.6233132473963 
-144.47895467782894, 5.269306538766593, 22.838711075357477, 147.64665917835308, 50.440438534243384, 62.62479711563611 
-145.37027800733495, 5.010892519201038, 22.838827603004653, 146.94534440583698, 50.30954951188004, 62.626252436765725 
-146.2626417125798, 4.75724357244783, 22.83893634986876, 146.24471338108208, 50.18137657838248, 62.62767890822346 
-147.1560601611102, 4.508426611420783, 22.839037594725873, 145.54473944129367, 50.05593608753491, 62.629076236065714 
-148.0505455703191, 4.264507677083223, 22.839131617898204, 144.84539674734899, 49.933244036798534, 62.630444134882794 
-148.94610801110952, 4.025551907035613, 22.839218700785516, 144.14666025691182, 49.813316066581166, 62.63178232771277 
-149.8427554132932, 3.7916235033284544, 22.839299125397464, 143.44850569822609, 49.696167459428175, 62.6330905459532 
-150.7404935728157, 3.5627856995578804, 22.839373173887406, 142.7509095445541, 49.58181313914217, 62.63436852927135 
-151.63932616089465, 3.3391007273044195, 22.839441128088374, 142.05384898922725, 49.470267669838215, 62.635616025513016 
-152.5392547351577, 3.1206297819781357, 22.839503269051793, 141.35730192127787, 49.36154525494136, 62.63683279061011 
-153.4402787528613, 2.9074329881360996, 22.839559876589508, 140.66124690162303, 49.2556597361331, 62.63801858848723 
-154.34239558627036, 2.6995693643408436, 22.83961122881982, 139.9656631397718, 49.15262459225288, 62.6391731909676 
-155.24560054027253, 2.497096787630954, 22.839657601718038, 139.27053047102874, 49.052452938160975, 62.64029637767862 
-156.149886872299, 2.3000719576774022, 22.83969926867215, 138.57582933416776, 48.95515752356841, 62.641387935956786 
-157.05524581461498, 2.108550360701559, 22.839736500044264, 137.88154074955222, 48.86075073183991, 62.642447660753035 
-157.96166659904208, 1.9225862332328687, 22.839769562738365, 137.1876462976764, 48.769244578775115, 62.64347535453794 
-158.86913648416444, 1.742232525786148, 22.83979871977493, 136.4941280981073, 48.6806507113736, 62.644470827207556 
-159.77764078506772, 1.56754086654038, 22.83982422987292, 135.80096878880366, 48.59498040658878, 62.64543389598965 
-160.68716290565047, 1.3985615251021826, 22.839846347039902, 135.10815150579234, 48.5122445700756, 62.646364385350985 
-161.59768437354145, 1.235343376438687, 22.839865320170563, 134.41565986318224, 48.43245373493704, 62.64726212690557 
-162.5091848776491, 1.0779338650656414, 22.83988139265441, 133.72347793349675, 48.35561806047372, 62.648126959324095 
-163.42164230835968, 0.9263789695771998, 22.83989480199295, 133.03159022830638, 48.28174733094134, 62.648958728244914 
-164.33503280039452, 0.7807231676047495, 22.839905779427042, 132.33998167914453, 48.210850954320215, 62.649757286186755 
-165.24933077832583, 0.6410094012921729, 22.839914549574768, 131.64863761868986, 48.142937961100735, 62.65052249246302 
-166.16450900474345, 0.5072790433751485, 22.839921330080408, 130.95754376219904, 48.07801700308918, 62.651254213098404 
-167.08053863105434, 0.379571863951593, 22.839926331274956, 130.26668618917512, 48.01609635223713, 62.65195232074744 
-167.99738925088846, 0.25792599803002464, 22.839929755848548, 129.57605132525643, 47.957183899498666, 62.6526166946158 
-168.91502895607417, 0.14237791394146015, 22.83993179853538, 128.88562592431236, 47.901287153718286, 62.65324722038365 
-169.8334243951376, 0.0329623826993922, 22.839932645811405, 128.1953970507325, 47.848413240553164, 62.65384379013228 
-170.75254083427055, -0.0702875516092403, 22.83993247560529, 127.50535206189609, 47.79856890143282, 62.654406302272974 
-171.67234222070132, -0.16734060032104292, 22.839931457022995, 126.81547859080972, 47.7517604925591, 62.6549346614796 
-172.5927912483951, -0.2581672575022615, 22.839929750086284, 126.12576452890096, 47.70799398394933, 62.6554287786238 
-173.5138494259989, -0.34273982598768143, 22.83992750548561, 125.43619800895651, 47.66727495852525, 62.655888570713635 
-174.43547714693946, -0.42103244207888674, 22.8399248643477, 124.74676738819409, 47.62960861125035, 62.656313960835845 
-175.35763376157115, -0.49302109883159717, 22.839921958017985, 124.05746123145701, 47.594999748317626, 62.656704878101294 
-176.28027765126453, -0.5586836678652268, 22.839918907858415, 123.36826829452123, 47.5634527863904, 62.65706125759455 
-177.20336630431666, -0.617999919631634, 22.83991582506071, 122.67917750750465, 47.53497175189758, 62.657383040326664 
-178.12685639355692, -0.6709515420840639, 22.839912810475433, 121.99017795836963, 47.50956028038584, 62.657670173192216 
-179.0507038555149, -0.7175221576915659, 22.839909954457056, 121.30125887650804, 47.48722161592993, 62.657922608930114 
-179.97486397101, -0.7576973387486676, 22.83990733672522, 120.612409616401, 47.46795861060284, 62.65814030608861 
179.10070855298434, -0.7914646209351273, 22.839905026242402, 119.92361964134324, 47.451773724007055, 62.65832322899403 
178.176059500353, -0.8188135150851764, 22.83990308110813, 119.23487850722383, 47.43866902286831, 62.65847134772416 
177.25123506188643, -0.8397355171312701, 22.839901548469914, 118.54617584635466, 47.428646180692546, 62.658584638085344 
176.3262817505239, -0.8542241161924333, 22.839900464450974, 117.85750135133785, 47.42170647748714, 62.658663081594256 
175.4012463159576, -0.8622748007828976, 22.83989985409484, 117.16884475896403, 47.41785079954712, 62.65870666546371 
174.47617565876635, -0.8638850631223307, 22.839899731327055, 116.48019583413313, 47.41707963930678, 62.65871538259291 
173.55111674424836, -0.8590544015346306, 22.839900098933793, 115.79154435378928, 47.41939309525709, 62.658689231561965 
172.62611651612517, -0.8477843209280488, 22.839900948557602, 115.10288009086209, 47.42479087192924, 62.658628216630774 
171.7012218102883, -0.8300783313551822, 22.839902260710204, 114.41419279820563, 47.433272279944156, 62.65853234774243 
170.7764792687614, -0.8059419446572146, 22.839904004802356, 113.72547219252745, 47.444836236127976, 62.658401640530684 
169.8519352540477, -0.7753826692024604, 22.83990613919074, 113.03670793829893, 47.45948126369325, 62.658236116331985 
168.9276357640332, -0.738410002735212, 22.839908611241732, 112.34788963163943, 47.477205492485275, 62.65803580220169 
168.003626347611, -0.6950354233563171, 22.839911357412134, 111.65900678416504, 47.49800665929312, 62.65780073093465 
167.0799520211916, -0.6452723786625675, 22.839914303346657, 110.97004880679441, 47.52188210822429, 62.65753094109 
166.15665718625735, -0.5891362730775133, 22.83991736399191, 110.28100499350236, 47.54882879114254, 62.65722647701997 
165.23378554811697, -0.5266444534114041, 22.839920443727006, 109.59186450501296, 47.57884326816715, 62.65688738890319 
164.31138003600887, -0.45781619269310725, 22.839923436510443, 108.90261635242317, 47.61192170823292, 62.65651373278168 
163.389482724697, -0.38267267232192936, 22.839926226043026, 108.21324938074771, 47.648059889709195, 62.65610557060201 
162.46813475769667, -0.3012369625916377, 22.83992868594675, 107.5237522523762, 47.6872532010763, 62.6556629702604 
161.5473762722598, -0.21353400164365047, 22.83993067995928, 106.83411343043258, 47.72949664165772, 62.655186005651444 
160.62724632624244, -0.11959057291049287, 22.839932062143934, 106.14432116202717, 47.774784822406126, 62.65467475672075 
159.70778282696838, -0.01943528111440764, 22.839932677114586, 105.45436346139125, 47.82311196674106, 62.65412930952095 
158.7890224621958, 0.08690147311021121, 22.839932360275583, 104.76422809288336, 47.87447191143615, 62.6535497562715 
157.87100063328342, 0.19938751989869016, 22.839930938076055, 104.07390255385668, 47.92885810755336, 62.652936195421475 
156.9537513906451, 0.3179889480673076, 22.83992822827841, 103.3833740573762, 47.98626362142176, 62.65228873171598 
156.0373073715717, 0.44267013417632495, 22.83992404024061, 102.6926295147737, 48.046681135658076, 62.651607476265205 
155.12169974048996, 0.5733937726647457, 22.83991817521186, 102.00165551802867, 48.11010295022608, 62.65089254661688 
154.20695813171872, 0.7101209069748775, 22.839910426641453, 101.31043832196244, 48.17652098353196, 62.650144066831196 
153.29311059477314, 0.8528109615828257, 22.839900580500032, 100.6189638262322, 48.24592677355209, 62.64936216755852 
152.3801835422581, 1.0014217748498864, 22.839888415613263, 99.9272175571115, 48.31831147899029, 62.64854698611945 
151.46820170038225, 1.155909632608531, 22.83987370400708, 99.23518464904255, 48.39366588046055, 62.647698666587395 
150.55718806211527, 1.3162293023960692, 22.839856211264376, 98.5428498259458, 48.47198038169202, 62.64681735987305 
149.6471638430006, 1.4823340682485366, 22.8398356968924, 97.85019738227103, 48.55324501075183, 62.64590322381076 
148.73814843962862, 1.6541757659673306, 22.83981191470061, 97.15721116377364, 48.637449421282284, 62.644956423246995 
147.83015939076427, 1.831704818771112, 22.839784613188257, 96.46387454799947, 48.72458289374787, 62.64397713013 
146.92321234111665, 2.014870273246104, 22.83975353594134, 95.77017042446026, 48.81463433668765, 62.642965523600914 
146.01732100772801, 2.203619835508579, 22.839718422038395, 95.07608117448113, 48.90759228796889, 62.64192179008623 
145.1124971489536, 2.39789990749423, 22.839679006464472, 94.38158865070099, 49.00344491603681, 62.64084612339086 
144.20875053599426, 2.597655623290441, 22.839635020532906, 93.68667415620546, 49.102180021155746, 62.63973872479223 
143.30608892693888, 2.802830885428916, 22.839586192314197, 92.9913184232713, 49.20378503663671, 62.63859980313474 
142.40451804326472, 3.013368401057715, 22.83953224707151, 92.29550159170006, 49.308247030046, 62.6374295749246 
141.50404154873985, 3.2292097179137125, 22.839472907702167, 91.59920318671811, 49.415552704389405, 62.63622826442471 
140.60466103066398, 3.450295260018477, 22.839407895184614, 90.90240209641851, 49.52568839926662, 62.63499610374928 
139.7063759833807, 3.6765643630227958, 22.83933692903022, 90.20507654871969, 49.638640091989735, 62.63373333295839 
138.80918379398778, 3.9079553091274604, 22.83925972773927, 89.50720408781432, 49.75439339866003, 62.63244020015154 
137.91307973016887, 4.14440536151037, 22.839176009260733, 88.80876155008087, 49.87293357519683, 62.63111696156076 
137.01805693006605, 4.385850798192652, 22.83908549145495, 88.10972503942874, 49.99424551831192, 62.629763881642226 
136.1241063941088, 4.632226945279224, 22.83898789255883, 87.41006990204649, 50.11831376642298, 62.62838123316708 
135.23121697871346, 4.88346820951191, 22.838882931652854, 86.70977070052211, 50.24512250049911, 62.62696929731022 
134.33937539176307, 5.139508110076199, 22.838770329129268, 86.00880118730126, 50.374655544831505, 62.62552836373761 
133.44856618977823, 5.400279309605484, 22.838649807160916, 85.30713427744972, 50.50689636772179, 62.62405873069151 
132.55877177668526, 5.6657136443297755, 22.838521090169948, 84.60474202068292, 50.641828082080515, 62.62256070507345 
131.66997240409037, 5.935742153318459, 22.838383905296045, 83.90159557262533, 50.779433445928085, 62.62103460252467 
130.7821461729652, 6.210295106770176, 22.838237982863227, 83.1976651652594, 50.91969486278988, 62.61948074750395 
129.89526903665154, 6.48930203330516, 22.8380830568449, 82.49292007652281, 51.06259438197727, 62.61789947336237 
129.00931480509112, 6.772691746219084, 22.837918865326355, 81.78732859901062, 51.20811369874589, 62.61629112241491 
128.12425515019044, 7.0603923686595795, 22.837745150964206, 81.08085800773654, 51.35623415432208, 62.61465604600878 
127.24005961222798, 7.352331357690165, 22.83756166144214, 80.37347452690614, 51.506936735788415, 62.612994604587776 
126.35669560721655, 7.648435527208647, 22.837368149922337, 79.66514329565203, 51.66020207581842, 62.61130716775314 
125.47412843513273, 7.948631069690015, 22.83716437549202, 78.95582833267902, 51.81601045225065, 62.60959411432001 
124.59232128892933, 8.252843576726658, 22.836950103604533, 78.24549249976481, 51.97434178749184, 62.6078558323697 
123.7112352642489, 8.560998058341054, 22.836725106514333, 77.53409746405956, 52.135175647738045, 62.60609271929742 
122.83082936975927, 8.873018961049015, 22.836489163705373, 76.8216036591243, 52.298491242003045, 62.60430518185524 
121.95106053803595, 9.188830184653707, 22.83624206231227, 76.10797024464664, 52.464267420941994, 62.60249363618993 
121.07188363691866, 9.508355097753393, 22.835983597533698, 75.39315506476778, 52.63248267545841, 62.60065850787594 
120.19325148127457, 9.83151655194774, 22.835713573037516, 74.6771146049539, 52.80311513508202, 62.59880023194265 
119.31511484510358, 10.15823689473032, 22.835431801357018, 73.9598039473397, 52.97614256610411, 62.59691925289629 
118.43742247392626, 10.488437981056451, 22.835138104277835, 73.24117672447026, 53.151542369457076, 62.595016024735976 
117.5601210973992, 10.82204118357805, 22.83483231321494, 72.52118507136376, 53.32929157832351, 62.59309101096374 
116.68315544210695, 11.158967401539009, 22.83451426957927, 71.79977957581279, 53.50936685546049, 62.591144684588535 
115.80646824448588, 11.49913706832623, 22.834183825133483, 71.07690922684053, 53.691744490223016, 62.589177528123805 
114.93000026383876, 11.842470157673771, 22.833840842336357, 70.35252136122212, 53.876400395270984, 62.5871900335787 
114.05369029540627, 12.18888618851863, 22.833485194675372, 69.62656160797914, 54.06331010294219, 62.5851827024424 
113.177475183465, 12.538304228509045, 22.833116766987, 68.8989738307499, 54.25244876127406, 62.58315604566181 
112.30128983442954, 12.890642896167027, 22.832735455764393, 68.1697000679349, 54.44379112965538, 62.58111058361229 
111.4250672299401, 13.245820361709107, 22.83234116945183, 67.4386804705116, 54.63731157408864, 62.579046846061075 
110.54873843992503, 13.603754346529993, 22.83193382872574, 66.70585323740832, 54.83298406204264, 62.57696537212374 
109.67223263563262, 13.964362121355775, 22.83151336676178, 65.97115454832269, 55.03078215687386, 62.57486671021293 
108.79547710263371, 14.32756050307456, 22.831079729487683, 65.23451849386433, 55.23067901179454, 62.57275141797989 
107.91839725380342, 14.693265850253352, 22.830632875821387, 64.49587700289727, 55.43264736336349, 62.57062006224816 
107.04091664229666, 15.061394057351894, 22.830172777894358, 63.75515976695131, 55.636659524475306, 62.56847321893976 
106.1629569745402, 15.4318605476449, 22.829699421259484, 63.012294161567496, 55.842687376821694, 62.56631147299319 
105.28443812326975, 15.804580264865761, 22.829212805083518, 62.26720516443566, 56.05070236279794, 62.56413541827396 
