# MEX_intpoint_lon [deg], MEX_intpoint_lat [deg], MEX_intpoint_angle [deg], TGO_intpoint_lon [deg], TGO_intpoint_lat [deg], TGO_intpoint_angle [deg] 
-104.42599748333954, 20.533254065336894, 22.589144042835102, -165.46646499617077, 59.11908354700392, 62.52966162960189 
-105.32626801075595, 20.1516206282217, 22.58976220589413, -166.26413570034967, 58.89798633905494, 62.53185787318847 
-106.22483347103119, 19.771063328517393, 22.59036912716641, -167.05825348874208, 58.67837464603222, 62.53404848841635 
-107.12179077564467, 19.391673262543858, 22.590964635229064, -167.84893191613827, 58.460283934102414, 62.53623281191121 
-108.01723534979288, 19.013540850814927, 22.591548572270277, -168.63628094729322, 58.24374904191885, 62.53841018675856 
-108.91126110833993, 18.636755857863893, 22.592120794108933, -169.4204070790329, 58.02880419898581, 62.54057996268873 
-109.8039604330734, 18.261407411207937, 22.59268117019765, -170.2014134579893, 57.81548304301763, 62.54274149625477 
-110.69542415112886, 17.887584019416426, 22.593229583609585, -170.97939999409604, 57.603818636339774, 62.54489415100236 
-111.58574151445687, 17.515373589250053, 22.593765931008782, -171.7544634699783, 57.3938434813769, 62.54703729763243 
-112.47500018021482, 17.144863441840204, 22.594290122604363, -172.5266976463696, 57.18558953527108, 62.549170314156164 
-113.36328619197657, 16.776140327879464, 22.594802082088552, -173.29619336368893, 56.979088223670495, 62.55129258604229 
-114.25068396166054, 16.409290441796657, 22.595301746558633, -174.06303863990934, 56.774370453728366, 62.5534035063571 
-115.1372762520864, 16.044399434891048, 22.595789066423116, -174.8273187648478, 56.57146662634849, 62.55550247589645 
-116.02314416007901, 15.681552427402151, 22.596264005292134, -175.58911639100543, 56.37040664771339, 62.55758890331097 
-116.90836710004619, 15.32083401949363, 22.596726539852273, -176.34851162108254, 56.171219940128324, 62.559662205222864 
-117.79302278796516, 14.962328301130421, 22.597176659726134, -177.1055820922929, 55.973935452213794, 62.561721806336244 
-118.67718722571992, 14.606118860830815, 22.597614367316734, -177.8604030575967, 55.7785816684767, 62.56376713953919 
-119.56093468574059, 14.252288793275598, 22.598039677636997, -178.61304746397067, 55.5851866182897, 62.565797645999226 
-120.44433769590105, 13.90092070575867, 22.59845261812461, -179.36358602782903, 55.39377788430658, 62.56781277525099 
-121.32746702464054, 13.552096723464311, 22.59885322844255, 179.88791269229282, 55.20438261034, 62.569811985277006 
-122.2103916662801, 13.205898493558053, 22.59924156026548, 179.1413822256841, 55.017027508727324, 62.57179474258131 
-123.09317882651321, 12.86240718807929, 22.59961767705238, 178.396758121929, 54.831738867208394, 62.573760522256 
-123.9758939080541, 12.521703505625336, 22.59998165380572, 177.65397788579978, 54.64854255533852, 62.5757088080409 
-124.85860049643686, 12.183867671817742, 22.600333576817494, 176.91298091447445, 54.46746403045877, 62.577639092376444 
-125.7413603459613, 11.848979438543559, 22.600673543402497, 176.17370843698407, 54.288528343244444, 62.57955087644981 
-126.62423336578995, 11.517118081965274, 22.601001661619208, 175.4361034557976, 54.111760142852205, 62.58144367023463 
-127.50727760620576, 11.188362399294896, 22.60131804997859, 174.7001106904553, 53.937183681684694, 62.58331699252385 
-128.39054924504458, 10.862790704329202, 22.601622837141342, 173.96567652316597, 53.764822819791476, 62.58517037095687 
-129.27410257432405, 10.540480821744534, 22.601916161603864, 173.2327489462845, 53.59470102892368, 62.587003342039935 
-130.15798998709388, 10.221510080151562, 22.60219817137349, 172.50127751159084, 53.426841396259235, 62.58881545116076 
-131.042261964539, 9.905955303911668, 22.602469023633308, 171.7712132812935, 53.26126662781494, 62.59060625259739 
-131.92696706337054, 9.593892803718857, 22.602728884397127, 171.04250878068413, 53.09799905156099, 62.59237530952091 
-132.81215190354686, 9.285398365952437, 22.60297792815499, 170.31511795237157, 52.93706062025238, 62.594122193992995 
-133.69786115636717, 8.980547240808113, 22.603216337509675, 169.5889961120279, 52.778472913992005, 62.59584648695791 
-134.58413753298973, 8.679414129216635, 22.603444302804782, 168.8640999055804, 52.622257142538736, 62.59754777822906 
-135.4710217734259, 8.382073168561545, 22.603662021744796, 168.14038726778597, 52.46843414737372, 62.59922566647089 
-136.358552636069, 8.088597917209345, 22.603869699007635, 167.4178173821282, 52.3170244035376, 62.60087975917559 
-137.2467668878176, 7.799061337867982, 22.60406754585032, 166.69635064197792, 52.16804802125075, 62.60250967263512 
-138.13569929485834, 7.51353577979139, 22.60425577970807, 165.975948612962, 52.02152474732812, 62.604115031908826 
-139.02538261417533, 7.23209295985027, 22.604434623787636, 165.25657399648563, 51.877473966400125, 62.60569547078681 
-139.91584758585634, 6.954803942491925, 22.604604306655116, 164.5381905943581, 51.735914701950115, 62.60725063174893 
-140.80712292626885, 6.6817391186138515, 22.60476506181902, 163.82076327447044, 51.59686561717911, 62.608780165920045 
-141.6992353221804, 6.412968183378871, 22.604917127309033, 163.1042579374791, 51.46034501570767, 62.61028373302144 
-142.59220942590073, 6.148560113001671, 22.605060745251045, 162.3886414844491, 51.326370842124724, 62.61176100131894 
-143.4860678515238, 5.888583140539369, 22.60519616143904, 161.67388178541316, 51.19496068239255, 62.61321164756733 
-144.38083117234993, 5.633104730721434, 22.60532362490432, 160.95994764880464, 51.06613176411691, 62.61463535695195 
-145.27651791956828, 5.382191553856679, 22.60544338748281, 160.24680879172408, 50.939900956691346, 62.61603182302733 
-146.17314458228077, 5.135909458858032, 22.605555703380805, 159.53443581100075, 50.81628477132356, 62.61740074765307 
-147.0707256089499, 4.8943234454280775, 22.60566082873982, 158.82280015501178, 50.695299360952355, 62.61874184092719 
-147.96927341034976, 4.657497635451426, 22.60575902120124, 158.11187409622397, 50.576960520062855, 62.620054821117435 
-148.86879836410216, 4.425495243642318, 22.605850539471078, 157.40163070442316, 50.461283684407555, 62.62133941459019 
-149.7693088208766, 4.198378547498717, 22.605935642885704, 156.6920438205998, 50.348283930640555, 62.622595355737765 
-150.6708111123319, 3.976208856616631, 22.60601459097883, 155.9830880314579, 50.23797597587204, 62.62382238690408 
-151.57330956087551, 3.759046481420994, 22.606087643050646, 155.27473864451864, 50.13037417714987, 62.62502025830866 
-152.47680649131428, 3.5469507013719834, 22.60615505773932, 154.56697166378893, 50.02549253087493, 62.62618872796969 
-153.38130224446667, 3.339979732707997, 22.606217092595724, 153.8597637659675, 49.92334467215651, 62.627327561625975 
-154.28679519280482, 3.138190695788932, 22.6062740036618, 153.15309227716247, 49.82394387411403, 62.628436532658 
-155.19328175818947, 2.9416395821055126, 22.60632604505315, 152.44693515009445, 49.72730304713101, 62.629515422008474 
-156.10075643175801, 2.7503812210227014, 22.60637346854635, 151.74127094176092, 49.63343473806715, 62.63056401810264 
-157.00921179601994, 2.564469246327129, 22.60641652317168, 151.03607879153907, 49.54235112943397, 62.6315821167681 
-157.91863854921058, 2.383956062650199, 22.606455454811655, 150.33133839970407, 49.45406403853951, 62.632569521154814 
-158.82902553194722, 2.208892811840499, 22.606490505805915, 149.6270300063416, 49.36858491660722, 62.63352604165543 
-159.7403597562266, 2.0393293393602563, 22.606521914563086, 148.9231343706343, 49.28592484787415, 62.634451495825765 
-160.6526264367967, 1.875314160782259, 22.606549915180057, 148.2196327505019, 49.20609454867314, 62.63534570830618 
-161.5658090249285, 1.7168944284645873, 22.606574737069142, 147.5165068825764, 49.12910436650387, 62.63620851074341 
-162.4798892446073, 1.564115898481319, 22.606596604593665, 146.81373896249463, 49.05496427909703, 62.63703974171368 
-163.39484713115522, 1.4170228978882673, 22.60661573671254, 146.11131162548944, 48.98368389347615, 62.63783924664684 
-164.31066107229003, 1.2756582924029611, 22.606632346634076, 145.4092079272642, 48.91527244502111, 62.6386068777517 
-165.22730785161667, 1.1400634545785555, 22.606646641479706, 144.7074113251339, 48.849738796537295, 62.63934249394313 
-166.14476269454022, 1.0102782325509587, 22.606658821958018, 144.0059056594174, 48.787091437334425, 62.64004596077072 
-167.06299931658137, 0.8863409194383303, 22.60666908204938, 143.30467513506582, 48.72733848231839, 62.64071715034901 
-167.9819899740669, 0.7682882234714044, 22.60667760870183, 142.6037043035137, 48.670487671099885, 62.64135594129027 
-168.90170551715875, 0.6561552389321946, 22.60668458153837, 141.90297804473786, 48.61654636712303, 62.64196221863878 
-169.82211544517804, 0.5499754179773928, 22.606690172576275, 141.20248154951224, 48.565521556817146, 62.6425358738079 
-170.74318796417052, 0.4497805434213524, 22.606694545958632, 140.5022003018445, 48.5174198487748, 62.64307680451928 
-171.6648900466531, 0.35560070255179255, 22.606697857698542, 139.8021200615833, 48.47224747295885, 62.64358491474464 
-172.58718749347128, 0.26746426204923573, 22.60670025543633, 139.1022268471839, 48.43001027994131, 62.64406011465043 
-173.51004499769002, 0.18539784407888024, 22.606701878210032, 138.40250691862056, 48.390713740176544, 62.644502320545016 
-174.4334262104329, 0.1094263036210367, 22.60670285623951, 137.7029467604348, 48.354362943311045, 62.644911454829 
-175.35729380857538, 0.03957270710330613, 22.60670331072449, 137.003533064909, 48.32096259753231, 62.64528744594846 
-176.28160956419143, -0.024141687605485938, 22.606703353656705, 136.30425271535452, 48.29051702895853, 62.64563022835139 
-177.206334415646, -0.08169744978294007, 22.606703087646526, 135.60509276950452, 48.26303018107141, 62.645939742447176 
-178.1314285402178, -0.1330769929693907, 22.606702605764227, 134.90604044300164, 48.23850561419341, 62.6462159345697 
-179.05685142813107, -0.17826459056377816, 22.606701991396072, 134.20708309297086, 48.21694650501155, 62.646458756943424 
-179.98256195786976, -0.21724638985412792, 22.6067013181155, 133.5082082016682, 48.198355646148684, 62.646668167653296 
179.0914815273594, -0.25001042444204324, 22.606700649569525, 132.80940336019606, 48.182735445784, 62.646844130617986 
178.16532114215173, -0.2765466250249723, 22.606700039380435, 132.1106562522766, 48.17008792732351, 62.646986615566654 
177.23899938056002, -0.2968468285047948, 22.6066995310632, 131.41195463807364, 48.16041472912182, 62.647095598019554 
176.31255903702564, -0.3109047853960846, 22.606699157958214, 130.71328633805496, 48.15371710425573, 62.64717105927208 
175.38604312673468, -0.3187161655121761, 22.606698943179975, 130.01463921688625, 48.14999592035055, 62.64721298638259 
174.45949480555004, -0.3202785619123637, 22.60669889958142, 129.31600116734813, 48.14925165945949, 62.647221372164054 
173.53295728967316, -0.31559149309859524, 22.606699029734127, 128.61736009426778, 48.15148441799655, 62.647196215179314 
172.6064737751894, -0.30465640345510386, 22.606699325924364, 127.91870389845707, 48.15669390672307, 62.647137519740085 
171.6800873576522, -0.28747666192978155, 22.606699770164923, 127.22002046064841, 48.164879450788085, 62.647045295909905 
170.75384095186092, -0.2640575589610941, 22.606700334222932, 126.52129762542016, 48.17603998982212, 62.646919559510614 
169.82777721198565, -0.23440630165964924, 22.606700979663295, 125.82252318510315, 48.19017407808449, 62.646760332132615 
168.9019384521923, -0.1985320072586595, 22.606701657908026, 125.12368486365989, 48.20727988466328, 62.64656764114902 
167.97636656791718, -0.1564456948524584, 22.606702310311146, 124.42477030052777, 48.2273551937279, 62.6463415197332 
167.0511029579395, -0.10816027544744881, 22.606702868249197, 123.72576703441774, 48.25039740483303, 62.64608200688028 
166.1261884473943, -0.05369054035447813, 22.606703253227163, 123.02666248705982, 48.27640353327317, 62.64578914743194 
165.2016632118673, 0.006946852043433994, 22.606703376999732, 122.32744394688628, 48.30537021048697, 62.645462992105045 
164.27756670270554, 0.07373339110964891, 22.60670314170767, 121.62809855264352, 48.33729368450991, 62.64510359752353 
163.35393757367453, 0.14664873031584474, 22.606702440029142, 120.92861327692354, 48.37216982047387, 62.64471102625384 
162.43081360908576, 0.22567070510043893, 22.60670115534584, 120.22897490960537, 48.409994101152385, 62.644285346843716 
161.50823165351358, 0.3107753521722266, 22.60669916192361, 119.5291700411969, 48.45076162754955, 62.64382663386415 
160.58622754321163, 0.4019369302046771, 22.60669632510738, 118.82918504606695, 48.494467119531066, 62.643334967954615 
159.66483603933494, 0.4991279418623057, 22.606692501530127, 118.12900606555743, 48.541104916495144, 62.64281043587135 
158.74409076306353, 0.6023191570976194, 22.606687539335596, 117.42861899096515, 48.590668978081275, 62.64225313053845 
157.82402413271802, 0.7114796376538836, 22.60668127841455, 116.72800944638226, 48.643152884914564, 62.641663151102115 
156.90466730294852, 0.8265767627063136, 22.606673550654005, 116.02716277138398, 48.69854983938307, 62.64104060298747 
155.98605010607037, 0.947576255571719, 22.60666418019951, 115.3260640035522, 48.756852666445624, 62.640385597957895 
155.0682009956125, 1.0744422114145815, 22.6066529837297, 114.62469786082269, 48.81805381446727, 62.63969825417713 
154.15114699213456, 1.2071371258754624, 22.606639770743044, 113.92304872364359, 48.88214535607947, 62.638978696273405 
153.23491363136222, 1.3456219245461156, 22.606624343856353, 113.22110061693213, 48.94911898906188, 62.63822705540611 
152.31952491468036, 1.489855993214327, 22.606606499114527, 112.51883719181603, 49.018966037242514, 62.637443469334215 
151.4050032620158, 1.6397972088004618, 22.606586026311277, 111.8162417071458, 49.09167745141291, 62.636628082486816 
150.49136946713304, 1.7954019709068545, 22.606562709320343, 111.11329701076328, 49.16724381025457, 62.63578104603537 
149.57864265535852, 1.9566252339007968, 22.606536326436732, 110.40998552051128, 49.24565532127312, 62.634902517967454 
148.66684024373976, 2.1234205394516414, 22.606506650727628, 109.70628920496854, 49.326901821736165, 62.633992663162005 
147.7559779036396, 2.2957400494424487, 22.606473450392343, 109.00218956389385, 49.410972779610766, 62.633051653465785 
146.84606952575663, 2.473534579177105, 22.606436489131013, 108.29766760836199, 49.49785729449648, 62.63207966777092 
145.93712718755617, 2.656753630804249, 22.606395526521425, 107.59270384057369, 49.587544098549195, 62.631076892093304 
145.02916112308952, 2.8453454268801743, 22.606350318403546, 106.88727823332157, 49.68002155739165, 62.63004351965162 
144.1221796951713, 3.0392569439938355, 22.60630061727118, 106.18137020909178, 49.775277671005384, 62.62897975094713 
143.21618936988014, 3.238433946378385, 22.606246172670343, 105.47495861878245, 49.873300074599726, 62.62788579384341 
142.31119469333964, 3.442821019435004, 22.606186731603678, 104.76802172001659, 49.97407603945216, 62.62676186364651 
141.40719827073346, 3.6523616030963026, 22.60612203894053, 104.06053715502875, 50.0775924737152, 62.62560818318482 
140.50420074750087, 3.8669980249586255, 22.60605183783204, 103.35248192810178, 50.183835923184084, 62.6244249828888 
139.60220079265616, 4.086671533114036, 22.60597587013072, 102.64383238253019, 50.292792572019664, 62.62321250087023 
138.7011950841695, 4.311322328615358, 22.605893876814033, 101.93456417708516, 50.4044482434206, 62.62197098300042 
137.8011782963441, 4.5408895975092864, 22.605805598411315, 101.22465226195541, 50.518788400238776, 62.62070068298819 
136.9021430891204, 4.775311542375309, 22.605710775433504, 100.51407085413669, 50.63579814553162, 62.619401862455994 
136.0040800992348, 5.0145254133103085, 22.605609148805197, 99.80279341224178, 50.755462223045, 62.61807479101529 
135.1069779331585, 5.258467538301238, 22.60550046029833, 99.09079261070158, 50.87776501761963, 62.61671974634001 
134.2108231617393, 5.507073352930833, 22.605384452967037, 98.37804031332654, 51.00269055551441, 62.615337014238534 
133.31560031646805, 5.7602774293638435, 22.605260871582985, 97.66450754619653, 51.13022250463913, 62.61392688872359 
132.42129188728916, 6.018013504564012, 22.605129463070707, 96.95016446984555, 51.260344174689486, 62.61248967207995 
131.52787832187528, 6.280214507694439, 22.604989976942417, 96.23498035070666, 51.393038517176265, 62.61102567492981 
130.63533802628382, 6.546812586656972, 22.604842165731466, 95.51892353178077, 51.52828812534116, 62.609535216295626 
129.74364736691513, 6.817739133728628, 22.604685785424238, 94.80196140249129, 51.66607523395057, 62.60801862365995 
128.85278067369015, 7.092924810255945, 22.6045205958896, 94.08406036768528, 51.80638171895916, 62.606476233022555 
127.96271024436851, 7.372299570370628, 22.604346361305566, 93.36518581574008, 51.94918909703406, 62.604908388954044 
127.07340634992683, 7.655792683692637, 22.60416285058243, 92.6453020857321, 52.09447852493077, 62.603315444646206 
126.18483724092002, 7.943332756989465, 22.603969837781943, 91.9243724336235, 52.24223079871106, 62.60169776195871 
125.29696915474955, 8.234847754762626, 22.60376710253192, 91.20235899741995, 52.39242635279317, 62.600055711462005 
124.40976632376443, 8.530265018735413, 22.603554430435757, 90.4792227612508, 52.545045258823905, 62.59838967247609 
123.52319098412387, 8.829511286217816, 22.603331613476264, 89.7549235183214, 52.700067224362165, 62.5967000331051 
122.63720338535225, 9.132512707327477, 22.603098450413366, 89.02941983268461, 52.85747159136288, 62.59498719026756 
121.75176180052114, 9.439194861047394, 22.602854747175066, 88.30266899977664, 53.017237334449725, 62.59325154972191 
120.86682253699487, 9.74948277010385, 22.60260031724115, 87.5746270056603, 53.179343058964925, 62.59149352608734 
119.98233994768187, 10.063300914649673, 22.60233498201924, 86.84524848491598, 53.34376699878366, 62.58971354285956 
119.09826644273464, 10.38057324474076, 22.602058571212535, 86.1144866771186, 53.51048701388015, 62.58791203242152 
118.21455250164857, 10.701223191595183, 22.601770923178844, 85.38229338183602, 53.67948058763222, 62.58608943604863 
117.33114668571142, 11.02517367762669, 22.601471885280425, 84.64861891208221, 53.85072482385002, 62.58424620390884 
116.44799565076077, 11.352347125246173, 22.60116131422417, 83.91341204615516, 54.02419644351477, 62.5823827950565 
115.5650441602117, 11.68266546442638, 22.60083907639159, 83.1766199777876, 54.19987178121198, 62.580499677421074 
114.68223509832056, 12.016050139027334, 22.600505048158283, 82.438188264535, 54.377726781243595, 62.578597327789275 
113.79950948365739, 12.352422111881145, 22.600159116202413, 81.69806077432314, 54.557736993402386, 62.57667623178161 
112.9168064827628, 12.691701868637164, 22.59980117780169, 80.95617963007376, 54.73987756839146, 62.574736883822226 
112.03406342397248, 13.033809420369378, 22.599431141118583, 80.2124851523249, 54.924123252870594, 62.572779787102625 
111.15121581139628, 13.378664304950268, 22.599048925473316, 79.46691579975787, 55.110448384111066, 62.57080545353891 
110.26819733904588, 13.726185587196076, 22.598654461604227, 78.71940810754172, 55.29882688423877, 62.5688144037221 
109.38493990511058, 14.076291857790586, 22.59824769191522, 77.96989662340066, 55.48923225404523, 62.56680716686206 
108.50137362638603, 14.428901230995635, 22.597828570709925, 77.2183138413081, 55.68163756634512, 62.56478428072427 
107.61742685286868, 14.783931341157926, 22.597397064412174, 76.46459013270795, 55.87601545885734, 62.56274629155976 
106.73302618253345, 15.141299338023451, 22.59695315177261, 75.70865367515867, 56.0723381265864, 62.56069375402799 
105.8480964763203, 15.50092188087174, 22.59649682406104, 74.95043037829487, 56.27057731367903, 62.55862723111263 
104.96256087336067, 15.862715131484176, 22.596028085244267, 74.18984380699577, 56.470704304730326, 62.55654729402991 
