# MEX_intpoint_lon [deg], MEX_intpoint_lat [deg], MEX_intpoint_angle [deg], TGO_intpoint_lon [deg], TGO_intpoint_lat [deg], TGO_intpoint_angle [deg] 
-103.95794874648423, 20.424501394971454, 22.310345890392107, -149.01416466247957, 59.05903140024211, 62.52937393552003 
-104.86669524426755, 20.057400308893982, 22.31093005626479, -149.8085579441298, 58.836161620662224, 62.531590303128674 
-105.77375059311491, 19.691294861592166, 22.31150394106283, -150.5994248513589, 58.61479721224174, 62.53380093839869 
-106.67920565139207, 19.326274532547533, 22.31206738226412, -151.3868790131395, 58.39497356400102, 62.53600517198138 
-107.58314997395003, 18.962428141083098, 22.312620229792582, -152.17103043230367, 58.17672544192298, 62.53820234111082 
-108.48567178340969, 18.599843862747125, 22.31316234603775, -152.9519856105065, 57.96008700728737, 62.54039178979035 
-109.38685794289741, 18.23860924499338, 22.313693605859253, -153.7298476686056, 57.745091833989235, 62.54257286897168 
-110.28679393010538, 17.878811222120508, 22.31421389657641, -154.50471646260286, 57.53177292489056, 62.54474493672608 
-111.18556381256082, 17.52053612943499, 22.314723117942854, -155.27668869529725, 57.3201627272505, 62.54690735840799 
-112.08325022399458, 17.163869716604896, 22.31522118210619, -156.04585802379384, 57.110293147278554, 62.549059506810835 
-112.97993434170927, 16.80889716017312, 22.31570801355311, -156.81231516301474, 56.902195563852224, 62.55120076231522 
-113.87569586485326, 16.45570307520143, 22.316183549039604, -157.57614798535502, 56.69590084143886, 62.553330513029174 
-114.77061299351594, 16.104371526017907, 22.316647737506827, -158.33744161662403, 56.49143934225964, 62.555448154921194 
-115.66476240856647, 15.754986036042572, 22.317100539982526, -159.0962785284102, 56.288840937731564, 62.557553091945124 
-116.5582192521654, 15.407629596667714, 22.31754192946825, -159.8527386270043, 56.08813501922202, 62.55964473615767 
-117.45105710888622, 15.062384675170785, 22.31797189081252, -160.60689933901284, 55.88935050814812, 62.56172250782826 
-118.34334798739032, 14.719333221639888, 22.318390420570182, -161.35883569378993, 55.69251586545249, 62.5637858355415 
-119.23516230260608, 14.378556674892826, 22.318797526848133, -162.10862040281296, 55.497659100484626, 62.565834156292055 
-120.12656885836911, 14.040135967372821, 22.31919322913766, -162.85632393612244, 55.304807779316306, 62.56786691557211 
-121.01763483048744, 13.704151529005198, 22.31957755813359, -163.60201459594472, 55.11398903251799, 62.56988356745158 
-121.9084257502012, 13.37068329000087, 22.31995055554065, -164.34575858761087, 54.92522956242173, 62.571883574651174 
-122.79900548801325, 13.039810682594087, 22.32031227386711, -165.08762008788253, 54.738555649895105, 62.573866408608104 
-123.68943623787244, 12.711612641703365, 22.32066277620618, -165.82766131079077, 54.5539931606496, 62.57583154953502 
-124.57977850169746, 12.386167604505847, 22.321002136005422, -166.56594257109197, 54.371567551105535, 62.57777848647169 
-125.47009107423474, 12.063553508917224, 22.321330436824383, -167.30252234543917, 54.19130387383505, 62.57970671733026 
-126.36043102824874, 11.743847790970532, 22.32164777208099, -168.03745733136554, 54.01322678260317, 62.58161574893345 
-127.25085370005002, 11.427127381088848, 22.32195424478687, -168.77080250417225, 53.837360537026754, 62.583505097046505 
-128.14141267536897, 11.113468699248621, 22.322249967272096, -169.50261117180932, 53.66372900686941, 62.5853742864023 
-129.0321597755908, 10.802947649031701, 22.322535060899575, -170.23293502783662, 53.49235567599055, 62.58722285072078 
-129.92314504437007, 10.495639610566219, 22.322809655769706, -170.96182420254559, 53.32326364596543, 62.58905033272159 
-130.81441673464866, 10.191619432357609, 22.32307389041545, -171.68932731232294, 53.15647563939233, 62.590856284131114 
-131.70602129610577, 9.890961422013515, 22.32332791148838, -172.41549150733147, 52.99201400290272, 62.59264026568372 
-132.59800336307185, 9.593739335867399, 22.323571873436123, -173.14036251758205, 52.82990070988895, 62.594401847116934 
-133.49040574294312, 9.300026367508151, 22.323805938171542, -173.86398469746692, 52.67015736296447, 62.59614060716166 
-134.38326940513713, 9.009895135224465, 22.32403027473424, -174.58640106882223, 52.512805196169445, 62.597856133526754 
-135.27663347063327, 8.723417668374893, 22.32424505894464, -175.307653362585, 52.35786507693584, 62.599548022878324 
-136.17053520214566, 8.440665392696392, 22.324450473051375, -176.02778205910653, 52.205357507823976, 62.601215880814536 
-137.06500999497905, 8.161709114566474, 22.32464670537213, -176.74682642718284, 52.05530262804326, 62.60285932183522 
-137.96009136862133, 7.8866190042357704, 22.324833949928717, -177.46482456185888, 51.90772021476837, 62.604477969307055 
-138.85581095912912, 7.615464578050244, 22.325012406076723, -178.18181342106277, 51.762629684262585, 62.60607145542442 
-139.75219851236474, 7.348314679684595, 22.325182278130153, -178.89782886112187, 51.62005009281885, 62.60763942116603 
-140.64928187814658, 7.085237460410148, 22.32534377498175, -179.61290567121245, 51.48000013752912, 62.609181516247375 
-141.54708700537458, 6.826300358423401, 22.32549710971931, 179.67292239320903, 51.34249815689205, 62.61069739906985 
-142.4456379381963, 6.571570077263255, 22.325642499238704, 178.95962257794568, 51.207562131268816, 62.612186736665905 
-143.34495681327903, 6.321112563347432, 22.32578016385384, 178.24716309852673, 51.07520968319639, 62.61364920464089 
-144.24506385825492, 6.074992982661005, 22.32591032690439, 177.5355131095577, 50.94545807756721, 62.61508448711187 
-145.1459773914071, 5.83327569663222, 22.32603321436156, 176.82464267491292, 50.818324221684215, 62.6164922766436 
-146.04771382266387, 5.596024237233273, 22.326149054432594, 176.11452273873115, 50.693824665199486, 62.617872274181366 
-146.9502876559702, 5.363301281345844, 22.326258077164326, 175.40512509717618, 50.57197559994463, 62.619224188981775 
-147.85371149310302, 5.135168624433921, 22.326360514046616, 174.6964223709269, 50.452792859660995, 62.620547738541006 
-148.75799603899844, 4.911687153568394, 22.326456597615845, 173.9883879783608, 50.336291919637, 62.62184264852103 
-149.66315010865537, 4.692916819850483, 22.32654656105928, 173.28099610939913, 50.22248789626024, 62.62310865267393 
-150.56918063568182, 4.478916610283152, 22.326630637820628, 172.57422169998063, 50.111395546491174, 62.62434549276474 
-151.47609268254485, 4.26974451914206, 22.326709061207445, 171.86804040713406, 50.00302926726562, 62.62555291849261 
-152.38388945258595, 4.065457518899493, 22.326782064000817, 171.1624285846198, 49.897403094832356, 62.626730687411 
-153.29257230385926, 3.8661115307570935, 22.32684987806788, 170.45736325911244, 49.794530704032454, 62.62787856484668 
-154.2021407648473, 3.6717613948449737, 22.326912733977686, 169.75282210689832, 49.69442540752656, 62.62899632381811 
-155.11259255210692, 3.48246084014674, 22.32697086062093, 169.04878343106068, 49.59710015497599, 62.63008374495311 
-156.02392358989235, 3.2982624542118533, 22.327024484833956, 168.3452261391295, 49.5025675321836, 62.63114061640632 
-156.93612803179977, 3.1192176527182585, 22.327073831027704, 167.64212972117116, 49.41083976019993, 62.632166733776266 
-157.84919828447295, 2.945376648949818, 22.327119120821926, 166.93947422829578, 49.321928694400164, 62.633161900022756 
-158.76312503340458, 2.776788423254484, 22.32716057268527, 166.23724025156076, 49.235845823536884, 62.63412592538427 
-159.67789727086293, 2.61350069255028, 22.327198401581573, 165.5354089012487, 49.152602268774125, 62.63505862729609 
-160.5935023259678, 2.4555598799472604, 22.327232818623024, 164.83396178650122, 49.07220878270698, 62.63595983030876 
-161.50992589693493, 2.303011084554612, 22.32726403073052, 164.13288099528833, 48.994675748372025, 62.636829366007525 
-162.42715208550038, 2.1558980515424455, 22.327292240301617, 163.43214907469584, 48.920013178252745, 62.63766707293293 
-163.34516343353198, 2.0142631425285766, 22.327317644886666, 162.73174901151253, 48.84823071328448, 62.6384727965024 
-164.26394096182707, 1.8781473063607184, 22.327340436873502, 162.03166421310084, 48.77933762186286, 62.639246388933266 
-165.18346421109, 1.7475900503646564, 22.327360803181055, 161.33187848853453, 48.71334279885999, 62.63998770916756 
-166.10371128507518, 1.6226294121286682, 22.327378924962268, 160.63237602998788, 48.65025476465216, 62.64069662279823 
-167.02465889587492, 1.5033019318941379, 22.327394977316924, 159.9331413943615, 48.59008166416257, 62.64137300199742 
-167.94628241132497, 1.3896426256216583, 22.327409129014445, 159.23415948513033, 48.53283126592291, 62.64201672544693 
-168.8685559044914, 1.2816849588009525, 22.32742154222735, 158.53541553440022, 48.47851096115688, 62.642627678270564 
-169.7914522051976, 1.1794608210719828, 22.32743237227539, 157.83689508515948, 48.427127762889036, 62.64320575196918 
-170.71494295354148, 1.083000501722957, 22.32744176738106, 157.1385839737132, 48.378688305081916, 62.643750844358074 
-171.6389986553462, 0.9923326661296243, 22.327449868436563, 156.44046831228718, 48.33319884180428, 62.644262859506895 
-172.56358873948088, 0.9074843331981504, 22.32745680878255, 155.7425344717905, 48.29066524643336, 62.64474170768269 
-173.48868161698053, 0.8284808538718693, 22.32746271399907, 155.04476906472453, 48.251093010893435, 62.64518730529542 
-174.41424474188773, 0.7553458907598538, 22.32746770170888, 154.34715892822788, 48.21448724493342, 62.64559957484676 
-175.3402446737319, 0.6881013989425306, 22.327471881393457, 153.64969110724581, 48.180852675445436, 62.645978444881955 
-176.2666471415558, 0.6267676080070271, 22.327475354221843, 152.95235283781463, 48.15019364582666, 62.64632384994483 
-177.19341710939304, 0.571363005361587, 22.32747821289271, 152.25513153045014, 48.12251411538634, 62.646635730536275 
-178.12051884309363, 0.5219043208754253, 22.32748054148974, 151.5580147536308, 48.0978176587996, 62.646914033075916 
-179.04791597839065, 0.4784065128868233, 22.32748241535055, 150.86099021736587, 48.07610746560992, 62.64715870986747 
-179.9755715900951, 0.4408827556187104, 22.327483900949275, 150.16404575683916, 48.05738633978157, 62.647369719067626 
179.09655173769863, 0.4093444280371305, 22.327485055793122, 149.46716931611925, 48.04165669930322, 62.64754702465835 
178.1684918405176, 0.38380110418421554, 22.327485928332855, 148.7703489319275, 48.02892057584417, 62.64769059642321 
177.24028690165076, 0.3642605450129814, 22.327486557887422, 148.07357271745434, 48.0191796144639, 62.64780040992718 
176.31197537965372, 0.35072869174733745, 22.327486974582847, 147.37682884621614, 48.012435073375876, 62.64787644650037 
175.38359593534759, 0.34320966078611653, 22.327487199305335, 146.68010553594326, 48.00868782376632, 62.64791869322536 
174.45518735844635, 0.341705740165857, 22.3274872436689, 145.9833910324913, 48.00793834966845, 62.64792714292867 
173.52678849394616, 0.34621738759235987, 22.327487109997236, 145.28667359376695, 48.01018674789236, 62.647901794175844 
172.59843816841297, 0.35674323004672664, 22.32748679132013, 144.58994147365996, 48.015432728011156, 62.647842651270516 
171.67017511630402, 0.37328006496698235, 22.32748627138433, 143.89318290597333, 48.023675612402876, 62.64774972425721 
170.7420379064591, 0.3958228630018923, 22.327485524678753, 143.19638608834276, 48.03491433634844, 62.647623028928315 
169.8140648688971, 0.4243647723291091, 22.327484516474172, 142.49953916613742, 48.04914744818528, 62.647462586834486 
168.88629402205132, 0.4588971245252373, 22.327483202877183, 141.80263021633343, 48.06637310951607, 62.647268425299146 
167.95876300057566, 0.4994094419710707, 22.327481530898524, 141.10564723135147, 48.08658909547214, 62.64704057743683 
167.03150898385164, 0.5458894467709013, 22.327479438535427, 140.4085781028502, 48.10979279503073, 62.64677908217496 
166.10456862532254, 0.5983230711604703, 22.327476854868213, 139.71141060546628, 48.1359812113852, 62.64648398427965 
165.17797798277832, 0.6566944693741313, 22.32747370017072, 139.01413238049264, 48.16515096236712, 62.646155334385135 
164.25177244971056, 0.7209860309376857, 22.327469886034528, 138.31673091948545, 48.19729828091902, 62.64579318902658 
163.3259866878525, 0.7911783953495518, 22.327465315506846, 137.61919354779107, 48.232419015616465, 62.64539761067665 
162.40065456101428, 0.8672504681091865, 22.327459883241854, 136.92150740798303, 48.27050863123778, 62.64496866778539 
161.4758090703188, 0.9491794380482008, 22.327453475665244, 136.22365944319964, 48.31156220937995, 62.644506434823555 
160.55148229093683, 1.0369407959162749, 22.327445971151793, 135.52563638037213, 48.355574449118556, 62.644010992329044 
159.62770531041582, 1.1305083541707763, 22.3274372402158, 134.8274247133335, 48.402539667710045, 62.643482426956794 
158.70450816868893, 1.2298542679162103, 22.32742714571394, 134.12901068579635, 48.4524518013339, 62.64292083153151 
157.78191979984533, 1.3349490569368057, 22.32741554306046, 133.4303802741905, 48.50530440587257, 62.64232630510334 
156.85996797573634, 1.4457616287630768, 22.327402280454375, 132.73151917034738, 48.56109065772651, 62.64169895300659 
155.93867925148373, 1.5622593027110925, 22.327387199118277, 132.03241276402102, 48.6198033546619, 62.641038886920946 
155.01807891295107, 1.6844078348310698, 22.32737013354855, 131.33304612523213, 48.68143491668796, 62.64034622493524 
154.0981909262309, 1.812171443700189, 22.327350911776577, 130.6334039864242, 48.74597738696126, 62.63962109161403 
153.17903788919403, 1.9455128369930437, 22.327329355640725, 129.93347072441725, 48.81342243271346, 62.63886361806585 
152.26064098513856, 2.0843932387619164, 22.32730528106853, 129.2332303421464, 48.88376134619969, 62.63807394201419 
151.34301993857162, 2.2287724173579493, 22.32727849836888, 128.53266645017158, 48.956985045663714, 62.637252207870006 
150.42619297314673, 2.3786087139236156, 22.327248812533828, 127.83176224794241, 49.03308407631649, 62.6363985668064 
149.51017677177515, 2.5338590713863662, 22.327216023549443, 127.13050050480471, 49.112048611324354, 62.635513176834685 
148.59498643892067, 2.694479063882945, 22.327179926715495, 126.42886354073127, 49.1938684528028, 62.63459620288213 
147.6806354650821, 2.8604229265438907, 22.327140312973484, 125.72683320676144, 49.278533032811865, 62.633647816870756 
146.76713569346003, 3.031643585567847, 22.327096969242444, 125.02439086513178, 49.36603141434875, 62.6326681977976 
145.85449728879863, 3.208092688515726, 22.32704967876235, 124.3215173690797, 49.45635229233339, 62.63165753181552 
144.94272870838708, 3.3897206347552857, 22.32699822144438, 123.61819304230217, 49.549483994582204, 62.63061601231512 
144.03183667519878, 3.576476605987549, 22.326942374227848, 122.91439765804877, 49.645414482765304, 62.62954384000684 
143.1218261531421, 3.768308596787274, 22.326881911443014, 122.21011041782985, 49.7441313533423, 62.62844122300379 
142.21270032438977, 3.9651634450911266, 22.326816605179676, 121.50530992971775, 49.8456218384714, 62.62730837690438 
141.30446056875033, 4.1669868625681215, 22.32674622566069, 120.79997418621946, 49.94987280688663, 62.62614552487518 
140.39710644503924, 4.373723464808734, 22.326670541620146, 120.09408054169715, 50.056870764737475, 62.62495289773332 
139.49063567440476, 4.585316801270353, 22.32658932068573, 119.38760568931274, 50.16660185638555, 62.6237307340285 
138.58504412555698, 4.801709384918725, 22.32650232976447, 118.68052563747104, 50.279051865151935, 62.62247928012438 
137.68032580184865, 5.02284272150669, 22.326409335431794, 117.97281568573553, 50.394206214009614, 62.62119879027891 
136.7764728301496, 5.2486573384335635, 22.326310104323028, 117.26445040018884, 50.51204996621412, 62.61988952672382 
135.87347545145641, 5.47909281313055, 22.326204403526948, 116.55540358820969, 50.63256782586642, 62.61855175974252 
134.9713220131756, 5.7140878009195735, 22.326092000980903, 115.84564827263617, 50.755744138400786, 62.61718576774656 
134.06999896301593, 5.953580062295329, 22.325972665866978, 115.13515666528417, 50.88156289099102, 62.61579183735048 
133.16949084442587, 6.197506489582241, 22.325846169008546, 114.42390013978851, 51.01000771286761, 62.61437026344448 
132.2697802935085, 6.445803132920786, 22.325712283266895, 113.71184920373257, 51.141061875538455, 62.61292134926505 
131.37084803734714, 6.698405225539417, 22.325570783937206, 112.99897347003106, 51.27470829290522, 62.61144540646308 
130.4726728936736, 6.955247208271161, 22.32542144914351, 112.28524162752898, 51.41092952126771, 62.60994275516948 
129.5752317718113, 7.216262753275961, 22.325264060232016, 111.57062141077799, 51.54970775920741, 62.60841372405791 
128.67849967482474, 7.481384786932496, 22.32509840216232, 110.85507956894995, 51.69102484734227, 62.60685865040442 
127.78244970280898, 7.750545511865271, 22.324924263895973, 110.13858183384556, 51.83486226794321, 62.6052778801439 
126.88705305725192, 8.023676428075401, 22.32474143878188, 109.42109288695451, 51.981201144403606, 62.60367176792312 
125.99227904640428, 8.300708353145836, 22.324549724938034, 108.70257632552068, 52.13002224055201, 62.60204067714986 
125.09809509159388, 8.581571441493697, 22.324348925629135, 107.98299462756572, 52.28130595979819, 62.6003849800384 
124.20446673442166, 8.866195202645386, 22.32413884963945, 107.26230911582019, 52.435032344102304, 62.59870505765083 
123.31135764477995, 9.154508518511644, 22.323919311640562, 106.54047992051133, 52.591181072756534, 62.59700129993417 
122.41872962963502, 9.446439659642527, 22.32369013255344, 105.8174659409525, 52.74973146096803, 62.59527410575272 
121.52654264251939, 9.741916300443986, 22.323451139904417, 105.09322480587888, 52.91066245823179, 62.59352388291614 
120.63475479368103, 10.040865533340375, 22.32320216817446, 104.36771283246962, 53.07395264648134, 62.59175104820231 
119.74332236084132, 10.343213881868632, 22.322943059141487, 103.6408849839964, 53.23958023800507, 62.58995602737542 
118.85219980051505, 10.648887312692606, 22.322673662215045, 102.91269482603353, 53.40752307311497, 62.588139255198634 
117.9613397598511, 10.957811246527408, 22.322393834763076, 102.18309448116408, 53.577758617554466, 62.5863011754413 
117.07069308895478, 11.26991056796588, 22.322103442430226, 101.45203458211245, 53.75026395963123, 62.584442240880946 
116.18020885365765, 11.585109634201242, 22.32180235944729, 100.71946422323151, 53.92501580706053, 62.582562913299 
115.2898343487045, 11.903332282641363, 22.321490468931476, 99.98533091026957, 54.10199048350348, 62.58066366347107 
114.39951511133124, 12.224501837412472, 22.32116766317687, 99.24958050833905, 54.28116392478471, 62.57874497115082 
113.5091949352127, 12.54854111475131, 22.32083384393494, 98.51215718800633, 54.46251167477244, 62.5768073250479 
112.61881588476315, 12.875372427286864, 22.320488922684543, 97.77300336941802, 54.646008880903906, 62.57485122279921 
111.72831830977809, 13.204917587213988, 22.320132820891125, 97.03205966437694, 54.83163028933764, 62.572877170934056 
110.83764086041012, 13.537097908363426, 22.319765470254723, 96.28926481627614, 55.019350239714, 62.57088568483223 
109.9467205024778, 13.871834207173722, 22.31938681294652, 95.54455563779779, 55.20914265950375, 62.568877288675715 
109.05549253311091, 14.209046802572434, 22.318996801833457, 94.79786694627833, 55.40098105792419, 62.566852515393386 
108.16389059674144, 14.548655514775566, 22.31859540069074, 94.04913149663929, 55.59483851940081, 62.56481190659858 
107.27184670145606, 14.8905796630154, 22.3181825844019, 93.29827991177838, 55.79068769655183, 62.56275601251982 
106.37929123573011, 15.23473806220881, 22.31775833914607, 92.5452406103128, 55.988500802671716, 62.560685391924146 
105.48615298557087, 15.581049018579147, 22.31732266257225, 91.78993973156246, 56.188249603688575, 62.55860061203334 
104.59235915210282, 15.929430324246846, 22.3168755639603, 91.032301057657, 56.38990540956916, 62.55650224843271 
