# MEX_intpoint_lon [deg], MEX_intpoint_lat [deg], MEX_intpoint_angle [deg], TGO_intpoint_lon [deg], TGO_intpoint_lat [deg], TGO_intpoint_angle [deg] 
-104.53336466573568, 20.55761675829753, 22.654461004002584, -169.4396733274695, 59.06289456631913, 62.53090261705633 
-105.43161240351989, 20.172631605393015, 22.655087151404096, -170.23418542463452, 58.84010139115788, 62.53311820412298 
-106.3281531058436, 19.78874161461295, 22.655701827304103, -171.02517010926104, 58.618812797654414, 62.535328063394715 
-107.22308507937832, 19.40603822361227, 22.65630485819537, -171.81274100815435, 58.399064175517914, 62.53753152575374 
-108.11650510107215, 19.024612191386197, 22.656896084460325, -172.59700812326983, 58.180890291278814, 62.53972792865958 
-109.00850839532151, 18.64455361890314, 22.657475360390624, -173.37807795657497, 57.964325306623444, 62.54191661633564 
-109.89918861240562, 18.265951968838472, 22.65804255418987, -174.15605363033492, 57.749402795713685, 62.54409693994813 
-110.7886378080445, 17.88889608437479, 22.658597547959676, -174.9310350029673, 57.53615576153962, 62.546268257777385 
-111.67694642395251, 17.513474207036303, 22.6591402376691, -175.70311878061452, 57.3246166513516, 62.54842993538119 
-112.56420326926835, 17.139773993527587, 22.659670533107384, -176.47239862457877, 57.11481737121529, 62.55058134575086 
-113.45049550275269, 16.76788253154795, 22.66018835782034, -177.23896525476445, 56.906789299731514, 62.55272186945915 
-114.33590861565344, 16.397886354555688, 22.660693649030343, -178.0029065492707, 56.70056330096058, 62.55485089480069 
-115.22052641514789, 16.029871455457204, 22.66118635754009, -178.76430764027438, 56.49616973658893, 62.556967817924935 
-116.10443100827963, 15.663923299198052, 22.661666447620412, -179.52325100634118, 56.29363847737398, 62.55907204296086 
-116.98770278631652, 15.30012683423483, 22.66213389688215, 179.72018343870113, 56.092998913901624, 62.561162982134846 
-117.87042040946436, 14.938566502867523, 22.66258869613241, 178.96591826019466, 55.8942799666889, 62.563240055880286 
-118.75266079187888, 14.579326250414367, 22.663030849215357, 178.21387842026195, 55.6975100956629, 62.565302692940094 
-119.63449908692623, 14.222489533211709, 22.66346037283788, 177.46399119846927, 55.502717309045664, 62.56735033046162 
-120.51600867264986, 13.868139325423671, 22.663877296380225, 176.71618611542232, 55.309929171673076, 62.56938241408424 
-121.39726113740919, 13.516358124646882, 22.664281661692048, 175.97039485917657, 55.11917281277482, 62.57139839801934 
-122.27832626566176, 13.167227956297754, 22.66467352287407, 175.22655121434858, 54.93047493324103, 62.573397745123785 
-123.15927202386855, 12.820830376770342, 22.6650529460456, 174.48459099381813, 54.7438618123999, 62.57537992696527 
-124.04016454650815, 12.477246475354871, 22.665420009098458, 173.74445197291467, 54.55935931432992, 62.57734442388164 
-124.92106812219181, 12.136556874907892, 22.665774801437397, 173.0060738259852, 54.376992893728605, 62.579290725032415 
-125.80204517987875, 11.79884173126671, 22.666117423707497, 172.26939806524425, 54.19678760135937, 62.58121832844419 
-126.68315627519543, 11.464180731402124, 22.66644798750901, 171.53436798181033, 54.01876808909656, 62.583126741048844 
-127.56446007687103, 11.132653090304862, 22.666766615099732, 170.80092858883614, 53.842958614588206, 62.5850154787156 
-128.44601335330404, 10.804337546602893, 22.667073439085737, 170.06902656664403, 53.669383045555016, 62.586884066276355 
-129.32787095928325, 10.479312356908025, 22.667368602100524, 169.3386102097806, 53.49806486374335, 62.588732037544794 
-130.2100858228903, 10.157655288892206, 22.667652256473154, 168.60962937590855, 53.32902716854924, 62.5905589353295 
-131.09270893261612, 9.83944361309531, 22.667924563885904, 167.8820354364557, 53.16229268032951, 62.592364311440825 
-131.97578932472953, 9.524754093468259, 22.66818569502176, 167.15578122894578, 52.997883743415926, 62.59414772669239 
-132.8593740709404, 9.213662976656842, 22.668435829202213, 166.43082101093697, 52.83582232884698, 62.59590875089634 
-133.74350826640423, 8.906245980033852, 22.66867515401608, 165.70711041549808, 52.67613003683184, 62.59764696285351 
-134.62823501812022, 8.60257827848884, 22.668903864939484, 164.98460640815497, 52.51882809896014, 62.59936195033818 
-135.51359543377822, 8.302734489987023, 22.66912216494776, 164.26326724524142, 52.36393738017084, 62.601053310077624 
-136.39962861111465, 8.006788659910809, 22.669330264119775, 163.5430524335928, 52.211478380492764, 62.6027206477268 
-137.28637162784017, 7.714814244199989, 22.669528379235043, 162.8239226915224, 52.061471236569204, 62.604363577838136 
-138.17385953220693, 7.426884091308478, 22.669716733364318, 162.1058399110229, 51.91393572297803, 62.60598172382696 
-139.06212533428476, 7.143070422997949, 22.669895555454143, 161.38876712113776, 51.76889125335878, 62.60757471793231 
-139.95119999801938, 6.863444813991512, 22.67006507990591, 160.67266845244978, 51.6263568813576, 62.60914220117369 
-140.8411124341491, 6.588078170512356, 22.67022554614999, 159.9575091026359, 51.486351301400305, 62.610683823303795 
-141.7318894940566, 6.317040707735464, 22.670377198215473, 159.24325530303975, 51.34889284930394, 62.61219924275761 
-142.6235559646369, 6.050401926182752, 22.670520284296156, 158.52987428621518, 51.2139995027362, 62.613688126597644 
-143.51613456426273, 5.788230587094639, 22.67065505631326, 157.8173342543959, 51.08168888153245, 62.61515015045608 
-144.40964593993027, 5.530594686813844, 22.670781769475504, 157.10560434884832, 50.95197824787897, 62.616584998473655 
-145.30410866566885, 5.2775614302198885, 22.670900681837125, 156.39465462006706, 50.82488450637171, 62.617992363235565 
-146.19953924229972, 5.029197203255461, 22.67101205385437, 155.6844559987725, 50.700424203958335, 62.6193719457048 
-147.09595209862792, 4.785567544588492, 22.671116147941134, 154.9749802676738, 50.57861352977228, 62.62072345515279 
-147.99335959415185, 4.546737116456843, 22.67121322802424, 154.2662000339605, 50.45946831486628, 62.62204660908782 
-148.89177202337456, 4.312769674744739, 22.67130355909898, 153.55808870248796, 50.34300403185324, 62.62334113318144 
-149.79119762179874, 4.083728038343386, 22.671387406785545, 152.8506204496239, 50.2292357944616, 62.624606761193036 
-150.69164257368746, 3.8596740578503814, 22.67146503688684, 152.1437701977236, 50.11817835701243, 62.62584323489247 
-151.593111021669, 3.6406685836655344, 22.671536714948374, 151.43751359020345, 50.009846113825155, 62.62705030398179 
-152.49560507826305, 3.426771433543112, 22.671602705820675, 150.7318269671838, 49.90425309855832, 62.62822772601521 
-153.3991248394024, 3.2180413596631094, 22.671663273224972, 150.02668734167258, 49.80141298349214, 62.6293752663184 
-154.30366840001955, 3.0145360152865464, 22.671718679322513, 149.3220723762636, 49.70133907875881, 62.63049269790701 
-155.20923187176666, 2.8163119210620824, 22.671769184288326, 148.61796036032277, 49.604044331526666, 62.63157980140445 
-156.1158094029301, 2.623424431053498, 22.67181504588973, 147.91433018763837, 49.50954132514402, 62.63263636495942 
-157.02339320059795, 2.4359276985596576, 22.671856519070374, 147.21116133451181, 49.41784227824821, 62.63366218416312 
-157.93197355513325, 2.2538746418004254, 22.671893855540233, 146.50843383826546, 49.32895904384532, 62.63465706196693 
-158.84153886699985, 2.0773169095437773, 22.67192730337207, 145.80612827614658, 49.24290310836588, 62.63562080859969 
-159.75207567598233, 1.9063048467510113, 22.671957106605063, 145.1042257446064, 49.15968559070137, 62.636553241486034 
-160.6635686928347, 1.7408874603181788, 22.67198350485592, 144.40270783893405, 49.07931724122669, 62.637454185165105 
-161.57600083338602, 1.5811123849932054, 22.672006732938137, 143.70155663322677, 49.00180844081303, 62.63832347120996 
-162.4893532551234, 1.4270258495490145, 22.672027020489846, 143.00075466067767, 48.92716919983577, 62.63916093814825 
-163.4036053962668, 1.2786726432936075, 22.67204459161074, 142.30028489416364, 48.85540915718182, 62.63996643138405 
-164.31873501734057, 1.136096082998761, 22.67205966450856, 141.6001307271166, 48.78653757926049, 62.640739803121015 
-165.23471824524003, 0.9993379803289361, 22.67207245115573, 140.90027595466162, 48.72056335902181, 62.64148091228698 
-166.15152961978234, 0.8684386098521417, 22.672083156956266, 140.20070475500668, 48.65749501498645, 62.642189624460734 
-167.06914214272314, 0.7434366777140178, 22.672091980423858, 139.50140167106926, 48.59734069029056, 62.64286581180007 
-167.98752732921142, 0.6243692910558645, 22.67209911287118, 138.80235159232475, 48.540108151749294, 62.643509352972366 
-168.90665526164625, 0.5112719282564304, 22.672104738110978, 138.10353973686364, 48.485804788942346, 62.64412013308722 
-169.82649464589142, 0.4041784100759867, 22.672109032169413, 137.40495163364392, 48.43443761332452, 62.64469804363143 
-170.74701286979328, 0.3031208717798477, 22.67211216301182, 136.70657310492572, 48.38601325736468, 62.6452429824065 
-171.66817606394056, 0.20812973631652917, 22.67211429028157, 136.00839024887622, 48.340537973715634, 62.645754853468596 
-172.58994916459503, 0.1192336886238259, 22.672115565051964, 135.3103894223328, 48.29801763441794, 62.64623356707178 
-173.51229597871315, 0.03645965113350147, 22.672116129591945, 134.61255722371266, 48.25845773013998, 62.64667903961348 
-174.4351792509718, -0.040167239457212185, 22.672116117145563, 133.91488047605856, 48.22186336945689, 62.64709119358349 
-175.358560732702, -0.11062365408225418, 22.672115651725687, 133.21734621020914, 48.188239278170514, 62.64746995751568 
-176.2824012526269, -0.1748880918095534, 22.672114847922188, 132.5199416480839, 48.15758979867236, 62.647815265943386 
-177.206660789294, -0.23294089889169556, 22.67211381072488, 131.82265418607244, 48.12991888935173, 62.64812705935758 
-178.13129854508213, -0.284764286309801, 22.672112635361334, 131.12547137851854, 48.10523012405067, 62.64840528416888 
-179.05627302165993, -0.33034234575996085, 22.672111407149963, 130.4283809212891, 48.083526691567165, 62.64864989267286 
-179.9815420967644, -0.3696610640359836, 22.672110201368426, 129.73137063541864, 48.064811395208515, 62.64886084301889 
179.09293689783726, -0.40270833576637927, 22.67210908313762, 129.0344284508205, 48.049086652395644, 62.64903809918259 
178.1672070973434, -0.4294739744683334, 22.672108107321314, 128.33754239005563, 48.03635449431996, 62.64918163094218 
177.24131202401813, -0.4499497218862226, 22.672107318441686, 127.64070055214974, 48.02661656565336, 62.64929141385822 
176.31529550654525, -0.4641292555870352, 22.67210675061078, 126.9438910964512, 48.019874124312565, 62.649367429257445 
175.38920159879012, -0.4720081947902991, 22.672106427477974, 126.24710222651984, 48.01612804127814, 62.649409664220094 
174.46307449812443, -0.47358410441518184, 22.672106362193627, 125.55032217403917, 48.015378800468966, 62.64941811157137 
173.5369584634725, -0.46885649733282414, 22.67210655738882, 124.85353918274299, 48.01762649867227, 62.64939276987653 
172.6108977332379, -0.4578268348170974, 22.67210700517133, 124.15674149234859, 48.02287084552979, 62.64933364344001 
171.68493644326958, -0.4404985251925949, 22.672107687137732, 123.45991732248748, 48.03111116357957, 62.649240742308216 
170.7591185450279, -0.41687692068371995, 22.672108574401758, 122.76305485662598, 48.0423463883538, 62.649114082276334 
169.83348772410818, -0.3869693124743371, 22.672109627638733, 122.06614222596679, 48.056575068532105, 62.64895368489892 
168.9080873192794, -0.3507849239926209, 22.67211079714611, 121.36916749332336, 48.07379536614998, 62.64875957750433 
167.98296024219204, -0.30833490244095213, 22.67211202292001, 120.67211863695847, 48.09400505686168, 62.64853179321291 
167.0581488979078, -0.25963230859593733, 22.672113234747624, 119.97498353437838, 48.11720153025688, 62.64827037095893 
166.1336951063984, -0.20469210490852818, 22.672114352315436, 119.27774994607384, 48.14338179023025, 62.64797535551625 
165.209640025158, -0.14353114193922845, 22.672115285333046, 118.58040549919913, 48.17254245540279, 62.647646797527635 
164.28602407306806, -0.07616814316798087, 22.672115933672437, 117.88293767117989, 48.20467975959371, 62.64728475353781 
163.3628868556486, -0.0026236882229098584, 22.672116187522573, 117.18533377324094, 48.23978955234145, 62.646889286029584 
162.44026709182327, 0.07707980542349593, 22.67211592755899, 116.48758093384392, 48.27786729947251, 62.64646046346393 
161.51820254232015, 0.1629181022382276, 22.672115025128374, 115.78966608202578, 48.31890808371606, 62.645998360323254 
160.59672993982238, 0.2548651698349635, 22.672113342447528, 115.09157593062781, 48.36290660536269, 62.64550305715771 
159.67588492097596, 0.35289320154462167, 22.672110732816893, 114.39329695940486, 48.409857182965325, 62.64497464063499 
158.75570196035463, 0.45697264028559886, 22.672107040847987, 113.69481539800435, 48.459753754079976, 62.644413203593 
157.8362143064732, 0.5670722036670506, 22.672102102704617, 112.9961172088042, 48.5125898760441, 62.64381884509553 
156.9174539199331, 0.6831589102558107, 22.672095746357563, 112.29718806959816, 48.5683587267901, 62.64319167049086 
155.999451413775, 0.8051981069347897, 22.67208779185231, 111.59801335611728, 48.627053105691246, 62.642531791472805 
155.08223599610548, 0.9331534972787683, 22.672078051589537, 110.89857812437486, 48.688665434437304, 62.6418393261446 
154.16583541505517, 1.0669871708711431, 22.672066330617962, 110.19886709282288, 48.75318775793688, 62.64111439908506 
153.25027590611782, 1.2066596334839859, 22.672052426939175, 109.49886462430656, 48.82061174524323, 62.6403571414171 
152.33558214191075, 1.3521298380419482, 22.672036131824004, 108.79855470780362, 48.89092869050061, 62.63956769087837 
151.42177718438805, 1.5033552162900043, 22.672017230140085, 108.09792093993414, 48.964129513907274, 62.63874619189373 
150.50888243953008, 1.6602917110836901, 22.671995500690134, 107.39694650622658, 49.04020476269186, 62.63789279564985 
149.59691761452373, 1.8228938092205558, 22.671970716560445, 106.69561416212439, 49.11914461209924, 62.637007660171165 
148.68590067743924, 1.9911145747309735, 22.67194264547924, 105.99390621371758, 49.200938866381996, 62.63609095039748 
147.77584781940268, 2.164905682546702, 22.671911050184328, 105.29180449818281, 49.285576959793275, 62.63514283826269 
146.86677341925392, 2.3442174524658475, 22.671875688799688, 104.58929036391457, 49.37304795757701, 62.63416350277482 
145.95869001067214, 2.528998883333598, 22.671836315220236, 103.88634465032955, 49.46334055695074, 62.63315313009692 
145.051608251746, 2.719197687358732, 22.6717926795046, 103.18294766732572, 49.55644308807684, 62.632111913628556 
144.145536896955, 2.9147603244871756, 22.671744528275102, 102.47907917437615, 49.65234351501692, 62.63104005408817 
143.24048277152593, 3.115632036754964, 22.671691605124643, 101.77471835923784, 49.75102943666484, 62.62993775959548 
142.33645074811827, 3.3217568825446486, 22.67163365102968, 101.06984381625354, 49.852488087652944, 62.62880524575406 
141.4334437257904, 3.5330777706706167, 22.671570404769085, 100.36443352422519, 49.956706339226336, 62.62764273573414 
140.53146261118982, 3.7495364942208873, 22.671501603348048, 99.65846482383529, 50.06367070007959, 62.626450460354825 
139.63050630190807, 3.971073764084674, 22.671426982426606, 98.95191439459232, 50.17336731715023, 62.62522865816595 
138.73057167193483, 4.19762924209741, 22.671346276752242, 98.24475823127483, 50.28578197636308, 62.62397757552943 
137.83165355914338, 4.42914157373698, 22.67125922059587, 97.53697161984819, 50.400900103319415, 62.622697466699364 
136.93374475473436, 4.665548420307287, 22.6711655481908, 96.8285291128264, 50.51870676392447, 62.62138859390138 
136.03683599456278, 4.906786490548057, 22.67106499417391, 96.1194045040502, 50.63918666494695, 62.62005122741049 
135.1409159522701, 5.152791571611805, 22.67095729402863, 95.40957080285176, 50.76232415450364, 62.61868564562747 
134.24597123414145, 5.403498559352029, 22.670842184529, 94.69900020757481, 50.88810322246218, 62.6172921351533 
133.3519863756056, 5.6588414878689415, 22.670719404184393, 93.98766407841741, 51.016507500754805, 62.61587099086204 
132.45894383929468, 5.9187535582621855, 22.670588693684028, 93.27553290956362, 51.14752026359555, 62.614422515971086 
131.56682401457942, 6.183167166542165, 22.670449796341096, 92.56257630056852, 51.28112442759313, 62.61294702210923 
130.6756052184957, 6.452013930655042, 22.67030245853549, 91.84876292695947, 51.417302551751675, 62.611444829382236 
129.7852636979771, 6.725224716578479, 22.670146430154855, 91.13406051001536, 51.556036837350675, 62.60991626643528 
128.89577363330983, 7.002729663448655, 22.669981465033278, 90.41843578568304, 51.69730912769611, 62.608361670512636 
128.00710714272662, 7.284458207681157, 22.669807321386998, 89.7018544725895, 51.84110090773326, 62.60678138751381 
127.11923428805659, 7.570339106051547, 22.669623762246623, 88.98428123910558, 51.987393303512434, 62.60517577204657 
126.23212308135103, 7.860300457703845, 22.669430555885235, 88.26567966941549, 52.13616708149794, 62.60354518747596 
125.3457394924057, 8.154269725057633, 22.66922747624191, 87.54601222854484, 52.287402647710316, 62.60189000596965 
124.46004745710265, 8.452173753587479, 22.669014303339935, 86.82524022629707, 52.4410800466917, 62.60021060853921 
123.57500888649771, 8.75393879045035, 22.668790823699354, 86.1033237800466, 52.59717896028355, 62.59850738507678 
122.69058367658148, 9.059490501939672, 22.668556830743125, 85.38022177633474, 52.75567870620575, 62.59678073438786 
121.80672971864564, 9.368753989746489, 22.668312125196522, 84.6558918312121, 52.91655823642555, 62.59503106421875 
120.92340291018924, 9.681653806011136, 22.66805651547908, 83.93029024926841, 53.07979613530444, 62.59325879127972 
120.04055716630357, 9.998113967150426, 22.667789818088657, 83.20337198128928, 53.24537061751035, 62.5914643412626 
119.15814443147734, 10.318057966448057, 22.66751185797717, 82.47509058047561, 53.41325952568261, 62.58964814885375 
118.2761146917691, 10.641408785397681, 22.667222468917316, 81.74539815715964, 53.58344032783565, 62.587810657740874 
117.39441598729695, 10.968088903790193, 22.66692149385999, 81.01424533194867, 53.75589011448803, 62.585952320615036 
116.51299442500104, 11.298020308538923, 22.666608785281753, 80.28158118722418, 53.93058559550165, 62.584073599166324 
115.6317941916385, 11.631124501237865, 22.66628420552202, 79.54735321692218, 54.10750309661612, 62.58217496407401 
114.75075756697535, 11.96732250445046, 22.665947627109457, 78.8115072745163, 54.28661855566245, 62.580256894990285 
113.869824937146, 12.306534866727436, 22.665598933077103, 78.07398751912353, 54.46790751843909, 62.57831988051816 
112.9889348081544, 12.648681666354824, 22.665238017265853, 77.33473635964783, 54.6513451342335, 62.57636441818284 
112.10802381949861, 12.993682513833733, 22.66486478461594, 76.5936943968749, 54.83690615097048, 62.57439101439645 
111.22702675790427, 13.341456553096236, 22.664479151445793, 75.85080036342706, 55.02456490996875, 62.572400184416374 
110.34587657115978, 13.691922461462182, 22.66408104571824, 75.10599106148437, 55.214295340285794, 62.57039245229673 
109.46450438205112, 14.044998448343819, 22.663670407293335, 74.35920129817463, 55.40607095263002, 62.56836835083307 
108.58283950240067, 14.400602252706465, 22.663247188167727, 73.61036381853036, 55.59986483281873, 62.56632842149997 
107.70080944722142, 14.758651139294525, 22.662811352700054, 72.85940923590952, 55.795649634758966, 62.56427321438155 
106.8183399490033, 15.119061893633996, 22.66236287782215, 72.10626595976997, 55.99339757292732, 62.56220328809497 
105.93535497215682, 15.481750815823508, 22.661901753235774, 71.35086012068714, 56.19308041432385, 62.56011920970653 
105.05177672764427, 15.846633713127783, 22.661427981594425, 70.59311549249841, 56.394669469873534, 62.55802155464039 
