# MEX_intpoint_lon [deg], MEX_intpoint_lat [deg], MEX_intpoint_angle [deg], TGO_intpoint_lon [deg], TGO_intpoint_lat [deg], TGO_intpoint_angle [deg] 
-104.1383096262806, 20.466856914929544, 22.41659305358286, -155.08834924113555, 59.14110150336956, 62.528495320101285 
-105.04385659220051, 20.094174281482243, 22.417190158378794, -155.88730391719554, 58.92069212374086, 62.53068369740798 
-105.94770605409629, 19.72251782098502, 22.417776619808755, -156.68269558234502, 58.701760506504925, 62.532866486284625 
-106.8499511947042, 19.35197765995901, 22.418352271958167, -157.47463775066063, 58.484342148871896, 62.53504302569353 
-107.75068382415871, 18.982643258151118, 22.418916961797827, -158.26324036084762, 58.268471918832276, 62.537212661009626 
-108.64999435294924, 18.61460342622705, 22.419470549203538, -159.04860989720459, 58.05418407352955, 62.53937474420502 
-109.54797176627939, 18.247946342701844, 22.420012906960036, -159.8308495063014, 57.84151227663186, 62.54152863402611 
-110.44470359969829, 17.88275957007119, 22.42054392074958, -160.61005910949572, 57.63048961474933, 62.54367369616332 
-111.34027591588392, 17.51913007010894, 22.421063489124926, -161.38633551141615, 57.421148612941856, 62.54580930341305 
-112.23477328246537, 17.15714421829865, 22.421571523466955, -162.15977250454, 57.21352124935992, 62.547934835832535 
-113.12827875078138, 16.796887817368752, 22.42206794792711, -162.9304609699939, 57.00763896905871, 62.550049680886815 
-114.02087383547908, 16.438446109903097, 22.422552699354544, -163.6984889747039, 56.80353269702451, 62.552153233588314 
-114.91263849486604, 16.081903790000514, 22.423025727208294, -164.46394186502113, 56.601232850450124, 62.554244896629015 
-115.80365111193628, 15.727345013958432, 22.423486993454546, -165.22690235694736, 56.400769350294325, 62.55632408050508 
-116.69398847599793, 15.374853409957957, 22.42393647244925, -165.9874506230825, 56.20217163215907, 62.55839020363402 
-117.58372576483964, 15.024512086728585, 22.424374150806095, -166.74566437641406, 56.00546865651633, 62.56044269246466 
-118.47293652737707, 14.676403641173257, 22.42480002725029, -167.50161895106538, 55.81068891831483, 62.56248098157951 
-119.36169266673119, 14.33061016493508, 22.425214112458107, -168.25538738011846, 55.6178604559961, 62.564504513790034 
-120.25006442369464, 13.987213249889287, 22.425616428882726, -169.00704047062158, 55.42701085994718, 62.56651274022465 
-121.13812036055035, 13.646293992545003, 22.426007010566288, -169.7566468758921, 55.23816728041662, 62.56850512040961 
-122.02592734521247, 13.307932997343224, 22.426385902938758, -170.504273165219, 55.05135643491907, 62.57048112234288 
-122.91355053566681, 12.972210378838415, 22.426753162603685, -171.2499838910687, 54.866604615152205, 62.57244022256091 
-123.80105336469335, 12.639205762753233, 22.427108857111207, -171.99384165389338, 54.68393769344951, 62.5743819061987 
-124.68849752486014, 12.30899828589667, 22.42745306471861, -172.7359071646383, 54.503381128790345, 62.57630566704296 
-125.57594295378333, 11.98166659493793, 22.427785874138863, -173.47623930504153, 54.32495997238867, 62.578211007578794 
-126.46344781965345, 11.657288844029708, 22.428107384277347, -174.2148951858164, 54.14869887288036, 62.5800974390296 
-127.35106850703508, 11.3359426912758, 22.428417703957177, -174.95193020280388, 53.97462208112827, 62.58196448139085 
-128.23885960294984, 11.017705294040134, 22.42871695163362, -175.68739809117892, 53.80275345466345, 62.583811663457375 
-129.12687388326057, 10.702653303095309, 22.429005255097778, -176.4213509777924, 53.63311646178014, 62.585638522844505 
-130.01516229937732, 10.390862855610877, 22.429282751170096, -177.1538394317263, 53.46573418530123, 62.58744460600341 
-130.90377396531218, 10.08240956698298, 22.4295495853841, -177.88491251313877, 53.300629326030524, 62.589229468230364 
-131.79275614511332, 9.777368521508933, 22.429805911660708, -178.61461782047004, 53.13782420590697, 62.59099267367046 
-132.68215424071423, 9.475814261912008, 22.430051891973623, -179.34300153608135, 52.97734077087604, 62.59273379531564 
-133.57201178023732, 9.177820777723685, 22.430287696006232, 179.9298915296077, 52.81920059349211, 62.594452414997534 
-134.46237040679577, 8.88346149253237, 22.43051350080049, 179.20401789541708, 52.663424875265854, 62.596148123374924 
-135.3532698678413, 8.592809250109843, 22.430729490398196, 178.47933536807852, 52.51003444876935, 62.5978205199163 
-136.24474800510853, 8.30593629942833, 22.430935855475237, 177.75580300222023, 52.35904977951199, 62.59946921287745 
-137.13684074521072, 8.022914278583754, 22.43113279296919, 177.03338106160865, 52.21049096759885, 62.601093819274496 
-138.02958209094425, 7.743814197642311, 22.43132050570085, 176.3120309815902, 52.06437774918346, 62.602693964852314 
-138.9230041133626, 7.468706420430034, 22.431499201990142, 175.59171533268037, 51.920729497726114, 62.60426928404885 
-139.81713694468226, 7.197660645287325, 22.43166909526693, 174.87239778524972, 51.779565225068474, 62.605819419955 
-140.7120087720868, 6.930745884812474, 22.431830403677306, 174.15404307525637, 51.64090358233489, 62.60734402427106 
-141.60764583249565, 6.668030444620793, 22.431983349685712, 173.43661697097912, 51.50476286067054, 62.6088427572589 
-142.50407240836742, 6.409581901148246, 22.432128159673674, 172.7200862407055, 51.37116099182594, 62.61031528769118 
-143.40131082460775, 6.155467078530926, 22.432265063535407, 172.00441862133107, 51.24011554859722, 62.61176129279678 
-144.2993814466542, 5.90575202459412, 22.43239429427104, 171.2895827878286, 51.111643745131104, 62.61318045820359 
-145.19830267980976, 5.660501985987302, 22.432516087577877, 170.57554832354757, 50.98576243710347, 62.61457247787794 
-146.09809096989818, 5.419781382503733, 22.432630681440294, 169.8622856913046, 50.86248812177948, 62.61593705406176 
-146.99876080531467, 5.183653780625852, 22.43273831571875, 169.14976620522924, 50.74183693796384, 62.61727389720685 
-147.90032472054352, 4.952181866340249, 22.432839231738534, 168.4379620033288, 50.62382466584881, 62.61858272590739 
-148.80279330121542, 4.725427417268237, 22.432933671878736, 167.72684602073903, 50.50846672676723, 62.619863266829825 
-149.7061751907752, 4.5034512741607235, 22.43302187916199, 167.01639196362788, 50.395778182858585, 62.621115254641396 
-150.61047709882928, 4.286313311808249, 22.43310409684556, 166.3065742837213, 50.28577373665447, 62.62233843193667 
-151.5157038112403, 4.074072409419586, 22.433180568014258, 165.59736815342123, 50.178467730590654, 62.623532549162924 
-152.42185820203488, 3.8667864205243876, 22.433251535175774, 164.8887494414874, 50.07387414645222, 62.624697364544055 
-153.32894124718635, 3.66451214245778, 22.433317239858983, 164.1806946892545, 49.97200660475834, 62.62583264400373 
-154.23695204033262, 3.467305285486781, 22.43337792221562, 163.47318108736016, 49.8728783640926, 62.626938161087466 
-155.14588781048488, 3.275220441640407, 22.433433820626057, 162.76618645295662, 49.776502320385006, 62.628013696884366 
-156.05574394178032, 3.088311053307379, 22.43348517130946, 162.059689207383, 49.68289100615142, 62.62905903994832 
-156.96651399532527, 2.9066293816670616, 22.43353220793912, 161.353668354275, 49.59205658969597, 62.630073986218996 
-157.87818973317394, 2.7302264750207366, 22.43357516126319, 160.64810345808883, 49.50401087428182, 62.63105833894294 
-158.79076114447966, 2.55915213709221, 22.4336142587315, 159.94297462301952, 49.418765297275456, 62.63201190859471 
-159.70421647385257, 2.393454895367516, 22.43364972412896, 159.23826247229138, 49.336330929269586, 62.63293451279866 
-160.61854225195066, 2.2331819695451465, 22.43368177721584, 158.5339481278024, 49.2567184731894, 62.63382597625107 
-161.53372332832544, 2.078379240168894, 22.4337106333757, 157.83001319010307, 49.17993826338689, 62.63468613064304 
-162.44974290653713, 1.9290912175162123, 22.43373650327111, 157.1264397186919, 49.106000264727626, 62.635514814584624 
-163.36658258154787, 1.7853610108155744, 22.43375959250791, 156.42321021260938, 49.03491407167455, 62.63631187352978 
-164.28422237939455, 1.6472302978665962, 22.433780101308272, 155.7203075913153, 48.96668890737249, 62.63707715970278 
-165.20264079913503, 1.5147392951368412, 22.433798224193026, 155.01771517583174, 48.90133362273788, 62.63781053202608 
-166.1218148570557, 1.3879267284089971, 22.433814149673722, 154.3154166701376, 48.83885669555708, 62.63851185604969 
-167.04172013311967, 1.2668298040517876, 22.433828059954816, 153.6133961427991, 48.77926622959717, 62.63918100388271 
-167.9623308196276, 1.1514841809872685, 22.433840130646338, 152.91163800882248, 48.72256995373268, 62.639817854126406 
-168.88361977205636, 1.0419239434264165, 22.433850530487476, 152.21012701171497, 48.66877522109153, 62.64042229180958 
-169.80555856203182, 0.9381815744434946, 22.433859421081397, 151.50884820574112, 48.61788900822329, 62.64099420832626 
-170.7281175323854, 0.8402879304585511, 22.433866956641715, 150.80778693836132, 48.56991791429298, 62.64153350137567 
-171.65126585423596, 0.7482722166955265, 22.433873283750813, 150.10692883284068, 48.524868160303015, 62.642040074904756 
-172.57497158603098, 0.6621619636815632, 22.433878541130582, 149.40625977101652, 48.48274558834621, 62.64251383905329 
-173.49920173447387, 0.5819830048509347, 22.433882859425573, 148.70576587621235, 48.4435556608921, 62.64295471010191 
-174.42392231725708, 0.5077594553145701, 22.433886360999146, 148.00543349628825, 48.40730346010932, 62.64336261042289 
-175.3490984275127, 0.43951369185338296, 22.43388915974262, 147.3052491868161, 48.37399368722594, 62.64373746843394 
-176.27469429988744, 0.37726633419068434, 22.433891360897945, 146.6051996943698, 48.34363066192999, 62.644079218555156 
-177.20067337813978, 0.32103622759595335, 22.433893060893855, 145.9052719399199, 48.31621832181205, 62.64438780116894 
-178.12699838415352, 0.270840426868552, 22.433894347195956, 145.20545300232382, 48.29176022185168, 62.64466316258358 
-179.05363138825413, 0.22669418174660236, 22.433895298170846, 144.50573010190018, 48.27025953394923, 62.6449052549997 
-179.98053388071048, 0.1886109237824581, 22.43389598296437, 143.80609058408027, 48.251719046504505, 62.64511403648051 
179.09233315570143, 0.15660225472195374, 22.433896461394358, 143.10652190312544, 48.23614116404361, 62.64528947092531 
178.16500917220003, 0.1306779364208682, 22.433896783857822, 142.40701160590262, 48.22352790689509, 62.6454315280466 
177.23753397969642, 0.1108458823274157, 22.433896991252816, 141.70754731570898, 48.21388091091623, 62.64554018335082 
176.30994767382384, 0.0971121505553579, 22.43389711491505, 141.00811671613621, 48.207201427270554, 62.645615418122624 
175.38229055943614, 0.08948093856766577, 22.433897176569346, 140.30870753496723, 48.20349032225692, 62.64565721941293 
174.454603074715, 0.08795457948623699, 22.433897188295944, 139.6093075280955, 48.20274807719097, 62.64566558003043 
173.5269257150273, 0.09253354003821618, 22.43389715251184, 138.9099044634592, 48.204974788339165, 62.6456404985372 
172.59929895667506, 0.10321642014495429, 22.43389706196701, 138.21048610498187, 48.21017016690548, 62.64558197924741 
171.6717631806816, 0.11999995415482037, 22.43389689975564, 137.5110401965105, 48.21833353907112, 62.645490032230505 
170.74435859675603, 0.14287901371623032, 22.433896639342333, 136.81155444574384, 48.22946384608679, 62.64536467331743 
169.81712516757815, 0.17184661228258505, 22.4338962446032, 136.112016508141, 48.2435596444175, 62.64520592411087 
168.89010253354553, 0.2068939112360895, 22.43389566988188, 135.41241397080321, 48.260619105939305, 62.645013811999235 
167.96332993811995, 0.24801022761273783, 22.43389486006025, 134.71273433631956, 48.28064001818751, 62.64478837017388 
167.03684615391097, 0.29518304340619694, 22.433893750643968, 134.01296500656767, 48.303619784655545, 62.64452963765057 
166.11068940962838, 0.34839801642382057, 22.43389226786249, 133.31309326646186, 48.32955542514367, 62.64423765929379 
165.184897318034, 0.4076389926637081, 22.433890328783622, 132.61310626763824, 48.35844357615629, 62.64391248584519 
164.2595068050175, 0.47288802017747383, 22.433887841442317, 131.91299101206906, 48.39028049134695, 62.64355417395501 
163.33455403991718, 0.5441253643793316, 22.433884704983623, 131.21273433559605, 48.42506204200936, 62.64316278621723 
162.41007436720042, 0.6213295247582488, 22.433880809819566, 130.512322891374, 48.46278371761313, 62.64273839120775 
161.48610223961515, 0.7044772529461618, 22.433876037799813, 129.81174313321463, 48.5034406263824, 62.642281063526006 
160.56267115291453, 0.7935435720918059, 22.433870262395715, 129.11098129882032, 48.54702749591572, 62.64179088383958 
159.6398135822539, 0.8885017974864154, 22.433863348897752, 128.4100233928985, 48.59353867384487, 62.641267938931925 
158.71756092034994, 0.9893235583844487, 22.43385515462591, 127.70885517014499, 48.64296812853093, 62.640712321752964 
157.79594341748674, 1.0959788209597412, 22.43384552915273, 127.00746211808631, 48.69530944979478, 62.64012413147263 
156.87499012344588, 1.2084359123348554, 22.43383431453887, 126.30582943976911, 48.75055584968004, 62.639503473536976 
155.954728831429, 1.3266615456191286, 22.433821345580743, 125.60394203628559, 48.808700163245526, 62.638850459726896 
155.03518602403673, 1.4506208458887762, 22.433806450069863, 124.90178448912236, 48.86973484938459, 62.638165208219405 
154.11638682135677, 1.580277377040663, 22.43378944906375, 124.19934104232074, 48.93365199166839, 62.63744784365117 
153.19835493120945, 1.7155931694497877, 22.43377015716782, 123.49659558443524, 49.00044329920995, 62.63669849718407 
152.2811126015892, 1.856528748359182, 22.433748382828014, 122.79353163027695, 49.070100107545876, 62.635917306573255 
151.36468057533364, 2.003043162930037, 22.43372392863371, 122.09013230242783, 49.142613379532186, 62.63510441623638 
150.44907804704465, 2.1550940158788867, 22.433696591630625, 121.38638031251142, 49.21797370625082, 62.634259977325264 
149.53432262227773, 2.3126374936283725, 22.43366616364311, 120.68225794220488, 49.29617130792291, 62.633384147798566 
148.62043027900867, 2.4756283968977595, 22.43363243160558, 119.97774702397669, 49.37719603482526, 62.632477092496316 
147.70741533138002, 2.644020171659271, 22.43359517790262, 119.2728289215335, 49.46103736820548, 62.631538983215194 
146.79529039572208, 2.817764940386608, 22.433554180717113, 118.56748450995971, 49.547684421192066, 62.63056999878528 
145.8840663588368, 2.9968135335225714, 22.4335092143863, 117.86169415553096, 49.63712593969461, 62.62957032514729 
144.97375234852655, 3.181115521092971, 22.43346004976493, 117.15543769518439, 49.72935030328989, 62.62854015543088 
144.06435570634326, 3.370619244395341, 22.433406454595247, 116.44869441562533, 49.82434552608881, 62.62747969003305 
143.15588196252827, 3.5652718476916907, 22.433348193883262, 115.7414430320511, 49.92209925757959, 62.62638913669719 
142.24833481310594, 3.765019309835879, 22.433285030280793, 115.0336616664705, 50.02259878344179, 62.62526871059192 
141.34171609909183, 3.969806475767614, 22.433216724472754, 114.32532782559758, 50.12583102632603, 62.62411863439007 
140.43602578776824, 4.1795770878066385, 22.433143035569316, 113.6164183782967, 50.23178254659411, 62.62293913834733 
139.53126195597773, 4.394273816682308, 22.433063721502172, 112.90690953255547, 50.340439543013424, 62.621730460380206 
138.6274207753798, 4.613838292235736, 22.43297853942466, 112.19677681196033, 50.451787853400276, 62.62049284614359 
137.72449649961354, 4.838211133733532, 22.432887246114987, 111.48599503164961, 50.565812955205644, 62.61922654910711 
136.82248145330445, 5.067331979734218, 22.432789598382207, 110.77453827371686, 50.68249996603747, 62.61793183063059 
135.92136602285163, 5.301139517450777, 22.432685353474238, 110.06237986203632, 50.801833644112605, 62.61660896003817 
135.02113864892868, 5.539571511554674, 22.432574269487546, 109.34949233648166, 50.92379838863201, 62.6152582146906 
134.12178582063018, 5.782564832369395, 22.43245610577787, 108.63584742650698, 51.048378240072125, 62.613879880056345 
133.223292071193, 6.03005548340354, 22.432330623371364, 107.921416024059, 51.17555688038524, 62.61247424978021 
132.32563997522107, 6.281978628176333, 22.43219758537587, 107.20616815578633, 51.30531763310125, 62.61104162574999 
131.42881014734184, 6.538268616290345, 22.43205675739148, 106.4900729545124, 51.43764346332361, 62.60958231816093 
130.53278124222055, 6.798859008709275, 22.43190790792004, 105.7730986299349, 51.5725169776109, 62.60809664557721 
129.63752995586046, 7.063682602200552, 22.431750808772975, 105.05521243851513, 51.70992042373617, 62.60658493499108 
128.74303102811538, 7.332671452905472, 22.431585235476916, 104.33638065251722, 51.84983569031541, 62.60504752187871 
127.84925724634286, 7.605756899001706, 22.43141096767665, 103.61656852815736, 51.9922443062963, 62.6034847502528 
126.95617945012715, 7.882869582425669, 22.431227789534724, 102.89574027281967, 52.137127440298066, 62.60189697271208 
126.06376653700104, 8.163939469624676, 22.431035490127275, 102.17385901129487, 52.28446589979298, 62.6002845504869 
125.17198546909934, 8.448895871311079, 22.430833863835623, 101.45088675099564, 52.4342401301197, 62.598647853481054 
124.28080128067687, 8.737667461193105, 22.430622710732894, 100.72678434610012, 52.58643021331808, 62.59698726030994 
123.39017708642717, 9.03018229365934, 22.43040183696542, 100.00151146057426, 52.7410158667751, 62.59530315833384 
122.50007409053946, 9.326367820396184, 22.430171055128213, 99.27502653002, 52.897976441670615, 62.59359594368754 
121.61045159643585, 9.62615090591967, 22.429930184634113, 98.54728672229571, 53.05729092121176, 62.59186602130496 
120.72126701713168, 9.929457842005542, 22.42967905207606, 97.81824789685203, 53.218937918644016, 62.59011380493895 
119.83247588616707, 10.236214361003096, 22.429417491582118, 97.08786456272458, 53.3828956750265, 62.58833971717652 
118.94403186905977, 10.546345648021047, 22.429145345162606, 96.356089835122, 53.54914205675877, 62.586544189448595 
118.05588677523394, 10.859776351974993, 22.428862463049022, 95.62287539054631, 53.71765455284573, 62.58472766203458 
117.16799057038332, 11.176430595488478, 22.42856870402425, 94.88817142037902, 53.88841027188656, 62.58289058406158 
116.28029138923081, 11.496231983641504, 22.42826393574358, 94.15192658286438, 54.06138593877345, 62.58103341349785 
115.39273554865176, 11.819103611561822, 22.427948035046143, 93.4140879534188, 54.236557891084644, 62.579156617140576 
114.50526756113184, 12.144968070856704, 22.42762088825638, 92.67460097319167, 54.41390207515628, 62.577260670597674 
113.61783014853584, 12.473747454883984, 22.427282391475007, 91.93340939580136, 54.593394041816474, 62.575346058263506 
112.73036425616804, 12.805363362863513, 22.426932450859223, 91.19045523216603, 54.77500894176442, 62.57341327328838 
111.8428090671105, 13.139736902831109, 22.426570982891725, 90.44567869334713, 54.95872152057645, 62.571462817541864 
110.95510201683005, 13.476788693439389, 22.42619791463809, 89.6990181313192, 55.14450611332062, 62.569495201569325 
110.06717880805127, 13.81643886461081, 22.42581318399235, 88.95040997757792, 55.33233663875975, 62.56751094454205 
109.1789734258972, 14.158607057050126, 22.425416739910144, 88.19978867949419, 55.52218659312278, 62.565510574200836 
108.2904181533061, 14.50321242062504, 22.42500854262945, 87.4470866343192, 55.714029043422634, 62.56349462679234 
107.40144358673832, 14.850173611624898, 22.424588563878274, 86.69223412074305, 55.907836620298475, 62.56146364699887 
106.51197865219308, 15.199408788909231, 22.424156787069283, 85.93515922790496, 56.103581510358474, 62.559418187861056 
105.62195062156204, 15.55083560895907, 22.42371320748078, 85.17578778175161, 56.30123544799864, 62.55735881069335 
104.73128512935195, 15.904371219845585, 22.42325783242417, 84.41404326863552, 56.50076970667191, 62.555286084992474 
