# MEX_intpoint_lon [deg], MEX_intpoint_lat [deg], MEX_intpoint_angle [deg], TGO_intpoint_lon [deg], TGO_intpoint_lat [deg], TGO_intpoint_angle [deg] 
-104.58993426834374, 20.57035321272699, 22.68906744098258, -171.53460093309945, 59.02291698955839, 62.5317313768898 
-105.48710469690786, 20.183600314983746, 22.68969782131196, -172.32687976324158, 58.79893228660807, 62.53396058855484 
-106.382567246879, 19.79795268213027, 22.690316607730757, -173.1156497266073, 58.57646557948793, 62.53618400173707 
-107.27642096027525, 19.413501927004926, 22.690923625627658, -173.90102447676884, 58.35555220192539, 62.53840094327468 
-108.16876332629701, 19.0303389824022, 22.691518714429446, -174.68311401893015, 58.13622686767138, 62.54061074666663 
-109.05969025916522, 18.648554122133156, 22.692101727620525, -175.46202483669217, 57.91852368880541, 62.54281275226043 
-109.94929607719813, 18.268236981166353, 22.692672532745505, -176.2378600140974, 57.70247619301908, 62.545006307431855 
-110.8376734829864, 17.88947657481532, 22.693231011394918, -177.0107193531104, 57.48811733992711, 62.54719076675695 
-111.72491354453783, 17.51236131694077, 22.693777059173982, -177.7806994866917, 57.27547953645254, 62.54936549217632 
-112.61110567727135, 17.136979037137756, 22.69431058565476, -178.54789398761957, 57.06459465133061, 62.551529853151436 
-113.49633762675134, 16.763416996879936, 22.69483151431158, -179.31239347321292, 56.85549402877343, 62.553683226813305 
-114.38069545206135, 16.391761904594983, 22.69533978244001, 179.92571429389452, 56.64820850133586, 62.555824998103375 
-115.26426350972616, 16.022099929646796, 22.695835341059297, 179.16634430878065, 56.44276840202074, 62.55795455990633 
-116.14712443810019, 15.654516715201815, 22.69631815479884, 178.40941423091866, 56.239203575659744, 62.56007131317562 
-117.0293591421477, 15.289097389958371, 22.696788201768445, 177.65484429437606, 56.03754338960482, 62.56217466705088 
-117.91104677855007, 14.925926578719293, 22.697245473412856, 176.9025572213927, 55.837816743762765, 62.56426403896797 
-118.79226474108225, 14.565088411789722, 22.69768997435063, 176.1524781392036, 55.64005208000474, 62.566338854761185 
-119.67308864620908, 14.206666533183023, 22.698121722197705, 175.40453449997784, 55.44427739098016, 62.56839854875803 
-120.55359231885944, 13.850744107619649, 22.69854074737587, 174.6586560037468, 55.25052022836388, 62.57044256386659 
-121.43384777834372, 13.49740382630445, 22.69894709290634, 173.91477452420082, 55.05880771056327, 62.57247035165537 
-122.31392522438703, 13.146727911469954, 22.699340814188933, 173.17282403723644, 54.869166529911496, 62.574481372425765 
-123.19389302325823, 12.798798119673876, 22.699721978766892, 172.4327405521399, 54.6816229593713, 62.576475095277594 
-124.07381769398019, 12.45369574384096, 22.70009066607795, 171.69446204529743, 54.49620285877292, 62.578450998167256 
-124.95376389461539, 12.111501614040169, 22.700446967191787, 170.9579283963263, 54.31293168060843, 62.58040856795899 
-125.83379440862515, 11.772296096990024, 22.70079098453432, 170.22308132652392, 54.131834475404055, 62.582347300469195 
-126.71397013130847, 11.436159094286136, 22.70112283159925, 169.48986433953732, 53.95293589669071, 62.58426670050401 
-127.59435005633182, 11.1031700393463, 22.70144263264713, 168.75822266415688, 53.77626020559245, 62.58616628189038 
-128.4749912623674, 10.773407893070459, 22.701750522392498, 168.02810319914423, 53.60183127505119, 62.58804556750027 
-129.3559488998626, 10.446951138213901, 22.702046645679435, 167.29945446000596, 53.42967259370589, 62.589904089269034 
-130.23727617796914, 10.123877772474177, 22.70233115714597, 166.57222652762837, 53.25980726944302, 62.59174138820712 
-131.11902435166573, 9.804265300293478, 22.70260422087785, 165.84637099869246, 53.09225803263457, 62.593557014405924 
-132.00124270911277, 9.488190723380397, 22.70286601005202, 165.12184093779152, 52.92704723907966, 62.59535052703775 
-132.8839785592832, 9.175730529956422, 22.703116706570462, 164.39859083117514, 52.76419687266413, 62.59712149435012 
-133.7672772199171, 8.866960682734765, 22.703356500684734, 163.67657654204922, 52.603728547753065, 62.598869493654405 
-134.6511820058535, 8.561956605641008, 22.703585590611713, 162.95575526736204, 52.44566351132962, 62.600594111308936 
-135.53573421779595, 8.260793169286844, 22.703804182141205, 162.2360854960099, 52.290022644893725, 62.60229494269743 
-136.42097313157342, 7.963544675210815, 22.70401248823577, 161.51752696839972, 52.13682646613298, 62.6039715922018 
-137.3069359879605, 7.67028483890182, 22.704210728623348, 160.8000406373064, 51.98609513037845, 62.60562367317072 
-138.19365798312612, 7.3810867716234965, 22.704399129383297, 160.0835886299675, 51.83784843185678, 62.60725080788295 
-139.08117225978174, 7.096022961059977, 22.704577922526283, 159.36813421135815, 51.69210580474984, 62.60885262750689 
-139.9695098991037, 6.81516525080619, 22.704747345568627, 158.65364174859351, 51.54888632407331, 62.61042877205542 
-140.85869991350705, 6.538584818727775, 22.70490764110171, 157.94007667640597, 51.408208706383974, 62.61197889033696 
-141.7487692403502, 6.2663521542190095, 22.705059056356905, 157.2274054636484, 51.270091310326464, 62.613502639902606 
-142.63974273665218, 5.998537034389139, 22.705201842766716, 156.51559558077616, 51.13455213702876, 62.61499968698973 
-143.53164317490555, 5.735208499210489, 22.70533625552263, 155.80461546826194, 51.001608830356155, 62.61646970646228 
-144.42449124007015, 5.4764348256643345, 22.7054625531303, 155.09443450590027, 50.87127867703233, 62.617912381747665 
-145.31830552783248, 5.2222835009233775, 22.705580996962617, 154.38502298295978, 50.74357860663684, 62.61932740477089 
-146.2131025442175, 4.97282119461228, 22.70569185081131, 153.67635206914363, 50.61852519148701, 62.62071447588588 
-147.1088967066393, 4.72811373019052, 22.70579538043757, 152.96839378631935, 50.49613464641255, 62.622073303804335 
-148.00570034647635, 4.488226055504841, 22.705891853122452, 152.26112098098181, 50.37642282843089, 62.62340360552205 
-148.90352371325707, 4.253222212561032, 22.705981537217426, 151.55450729741392, 50.259405236330636, 62.62470510624352 
-149.80237498054066, 4.023165306567803, 22.70606470169588, 150.84852715151172, 50.14509701017069, 62.625977539304415 
-150.70226025357516, 3.7981174743080555, 22.70614161570605, 150.1431557052413, 50.03351293070214, 62.627220646092496 
-151.6031835788145, 3.5781398518957808, 22.70621254812595, 149.43836884169704, 49.92466741871965, 62.6284341759671 
-152.5051469553728, 3.3632925419791264, 22.706277767120998, 148.73414314073122, 49.81857453434927, 62.62961788617735 
-153.4081503484914, 3.1536345804530637, 22.706337539704805, 148.03045585512706, 49.71524797627886, 62.63077154177951 
-154.31219170509098, 2.9492239027473417, 22.70639213130375, 147.32728488728785, 49.6147010809375, 62.63189491555342 
-155.2172669714773, 2.750117309757827, 22.706441805325955, 146.62460876641626, 49.5169468216299, 62.63298778791853 
-156.1233701132644, 2.5563704334915625, 22.70648682273518, 145.92240662615905, 49.421997807631556, 62.63404994684942 
-157.03049313757504, 2.368037702498208, 22.706527441630158, 145.22065818269303, 49.32986628325034, 62.63508118779124 
-157.93862611757197, 2.1851723071619595, 22.706563916830056, 144.51934371323, 49.24056412685997, 62.636081313575296 
-158.84775721936896, 2.007826164930552, 22.70659649946653, 143.8184440349184, 49.15410284991055, 62.63705013433485 
-159.7578727313642, 1.8360498855588716, 22.70662543658281, 143.11794048412062, 49.07049359592129, 62.637987467421304 
-160.66895709603133, 1.6698927364466052, 22.7066509707406, 142.41781489604634, 48.98974713946028, 62.63889313732123 
-161.58099294419796, 1.5094026081503666, 22.70667333963506, 141.71804958472228, 48.91187388511598, 62.63976697557421 
-162.49396113183315, 1.3546259801517226, 22.706692775718505, 141.0186273232804, 48.836883866465115, 62.64060882069153 
-163.40784077935825, 1.205607886963245, 22.7067095058333, 140.31953132454598, 48.76478674504115, 62.64141851807658 
-164.32260931348767, 1.0623918846553388, 22.70672375085448, 139.62074522190963, 48.69559180930759, 62.64219591994614 
-165.2382425115979, 0.9250200178867266, 22.706735725342426, 138.92225305046657, 48.629307973640266, 62.64294088525373 
-166.1547145486144, 0.7935327875214028, 22.706745637206218, 138.22403922840718, 48.56594377732231, 62.643653279614334 
-167.07199804639865, 0.6679691189145986, 22.706753687378054, 137.52608853864456, 48.5055073835556, 62.644332975231485 
-167.9900641256067, 0.5483663309496802, 22.706760069499122, 136.8283861106641, 48.44800657849219, 62.644979850826125 
-168.9088824599845, 0.43476010590697745, 22.70676496961735, 136.13091740258153, 48.39344877028907, 62.64559379156785 
-169.828421333054, 0.32718446024426373, 22.706768565897594, 135.43366818339624, 48.34184098818955, 62.64617468900858 
-170.7486476971365, 0.22567171636727199, 22.706771028344324, 134.7366245154265, 48.293189881634305, 62.6467224410188 
-171.6695272346503, 0.13025247546658203, 22.706772518537555, 134.03977273691515, 48.247501719404795, 62.647236951726406 
-172.59102442161128, 0.0409555914952822, 22.706773189382066, 133.34309944479278, 48.20478238880215, 62.647718131458525 
-173.51310259325584, -0.042191853640706364, 22.706773184870404, 132.64659147758795, 48.16503739486372, 62.64816589668614 
-174.4357240116977, -0.11916457361048424, 22.70677263985994, 131.95023589847258, 48.12827185961994, 62.64858016997182 
-175.3588499355217, -0.18993909983795382, 22.706771679864296, 131.25401997843218, 48.09449052139381, 62.648960879920814 
-176.28244069120936, -0.2544938022707316, 22.706770420859414, 130.55793117955042, 48.06369773414478, 62.649307961135044 
-177.20645574628432, -0.3128089086787686, 22.706768969104413, 129.86195713839766, 48.03589746685938, 62.64962135417093 
-178.13085378405725, -0.36486652242727524, 22.706767420977755, 129.16608564951423, 48.0110933029901, 62.64990100550033 
-179.05559277984437, -0.41065063867241125, 22.706765862828597, 128.47030464897824, 47.98928843994422, 62.65014686747525 
-179.98063007852667, -0.45014715893266705, 22.706764370843743, 127.77460219804911, 47.97048568862421, 62.650358898296105 
179.094077526689, -0.4833439039933046, 22.70676301093036, 127.0789664668771, 47.95468747302066, 62.65053706198356 
178.1685737144504, -0.5102306251059334, 22.70676183861448, 126.38338571827067, 47.94189582985936, 62.65068132835445 
177.24290255453013, -0.5307990134501409, 22.706760898955633, 125.68784829151225, 47.932112408303, 62.650791673001116 
176.31710842633885, -0.5450427078292563, 22.706760226477474, 124.99234258621382, 47.92533846970884, 62.65086807727483 
175.391235936836, -0.5529573005773086, 22.706759845114767, 124.29685704620437, 47.92157488744262, 62.65091052827308 
174.4653298379972, -0.5545403416597081, 22.7067597681765, 123.60138014343997, 47.92082214674941, 62.65091901883067 
173.53943494399869, -0.5497913409553343, 22.706759998325516, 122.9059003619285, 47.92308034468187, 62.6508935475148 
172.61359604827967, -0.5387117687133166, 22.706760527574357, 122.21040618166072, 47.928349190085704, 62.650834118624076 
171.6878578406458, -0.5213050541830879, 22.706761337297564, 121.51488606253928, 47.93662800364294, 62.65074074219153 
170.76226482457463, -0.49757658242178776, 22.70676239826031, 120.81932842829714, 47.94791571797236, 62.65061343399141 
169.83686123488505, -0.46753368928860395, 22.706763670663353, 120.12372165039737, 47.962210877787186, 62.6504522155501 
168.91169095592943, -0.4311856546408738, 22.70676510420424, 119.42805403190573, 47.97951164010937, 62.650257114160645 
167.98679744046598, -0.3885436937521994, 22.706766638154686, 118.73231379132748, 47.99981577454, 62.65002816290156 
167.06222362936558, -0.33962094697804446, 22.70676820145402, 118.03648904639991, 48.02312066358499, 62.64976540065897 
166.1380118723029, -0.28443246769924674, 22.706769712818627, 117.34056779783197, 48.0494233030353, 62.649468872152944 
165.2142038495788, -0.2229952085791353, 22.70677108086708, 116.64453791298199, 48.07872030240029, 62.649138627967375 
164.2908404952144, -0.15532800617432255, 22.706772204261053, 115.9483871094644, 48.111007885393406, 62.64877472458347 
163.36796192145314, -0.0814515639442368, 22.706772971861582, 115.25210293867652, 48.14628189046845, 62.648377224416954 
162.44560734480027, -0.0013884337086921734, 22.706773262900544, 114.55567276923558, 48.18453777140506, 62.64794619585875 
161.52381501372275, 0.08483700439308285, 22.706772947167305, 113.85908377031666, 48.22577059794169, 62.64748171331904 
160.602622138126, 0.17719856338444417, 22.706771885209907, 113.16232289488123, 48.26997505645413, 62.6469838572747 
159.68206482071616, 0.2756682723132007, 22.706769928550933, 112.46537686278643, 48.31714545067768, 62.6464527143199 
158.76217799034825, 0.38021640042885974, 22.706766919917523, 111.76823214376412, 48.36727570247069, 62.64588837722009 
157.84299533745417, 0.49081148260746543, 22.706762693485214, 111.07087494025897, 48.42035935261717, 62.64529094496858 
156.9245492516339, 0.6074203459534603, 22.70675707513552, 110.37329117011451, 48.47638956166597, 62.64466052284642 
156.00687076148677, 0.7300081375054153, 22.70674988272658, 109.67546644909493, 48.53535911080387, 62.64399722248461 
155.08998947674917, 0.85853835297021, 22.706740926376824, 108.97738607323105, 48.59726040275978, 62.643301161929514 
154.17393353279797, 0.9929728664082691, 22.706730008761028, 108.27903500097756, 48.662085462737046, 62.64257246571014 
153.25872953756837, 1.133271960790743, 22.706716925418572, 107.58039783516854, 48.72982593937074, 62.641811264908206 
152.3444025209269, 1.2793943593482924, 22.706701465073316, 106.88145880475778, 48.80047310570672, 62.641017697230176 
151.43097588653208, 1.4312972576298604, 22.706683409964796, 106.18220174632971, 48.87401786019876, 62.64019190708146 
150.51847136620418, 1.5889363561893646, 22.70666253619026, 105.48261008536625, 48.950450727720515, 62.63933404564223 
149.60690897681997, 1.752265893817335, 22.706638614057063, 104.78266681725432, 49.02976186058817, 62.63844427094525 
148.69630697973702, 1.9212386812349005, 22.70661140844501, 104.08235448801807, 49.11194103959002, 62.63752274795497 
147.7866818427458, 2.0958061351669848, 22.70658067917806, 103.38165517475915, 49.1969776750189, 62.63656964864818 
146.8780482045393, 2.275918312712502, 22.706546181405116, 102.68055046578802, 49.284860807703005, 62.635585152095494 
145.97041884168095, 2.461523945929633, 22.70650766598909, 101.97902144042762, 49.37557911003082, 62.63456944454422 
145.06380463804683, 2.6525704765550837, 22.706464879904004, 101.2770486484714, 49.469120886965534, 62.633522719501535 
144.15821455670834, 2.8490040907776897, 22.706417566639484, 100.57461208927528, 49.56547407704397, 62.632445177818674 
143.2536556142166, 3.05076975398754, 22.706365466612073, 99.8716911904636, 49.66462625335525, 62.63133702777517 
142.35013285724307, 3.2578112454237287, 22.706308317582906, 99.16826478622725, 49.766564624493924, 62.63019848516348 
141.44764934152488, 3.470071192645311, 22.70624585508114, 98.46431109519226, 49.87127603548232, 62.629029773373425 
140.5462061130581, 3.6874911057520174, 22.706177812832603, 97.75980769783439, 49.97874696865642, 62.627831123476454 
139.64580219147706, 3.9100114112832363, 22.70610392319312, 97.05473151341693, 50.088963544509745, 62.6266027743095 
138.74643455555358, 4.137571485726135, 22.706023917585856, 96.34905877642487, 50.20191152248916, 62.62534497255801 
137.84809813074554, 4.3701096885658135, 22.705937526942197, 95.64276501246972, 50.3175763017366, 62.62405797283838 
136.95078577872093, 4.607563394813071, 22.705844482145583, 94.93582501363719, 50.43594292177021, 62.62274203777882 
136.05448828878022, 4.849869026947789, 22.705744514477573, 94.22821281324832, 50.556996063098644, 62.621397438099514 
135.1591943710971, 5.0969620862184035, 22.70563735606578, 93.51990166000466, 50.68072004776134, 62.62002445269072 
134.26489065169585, 5.348777183240879, 22.705522740332874, 92.81086399148505, 50.807098839788274, 62.61862336868936 
133.37156166908161, 5.605248067842942, 22.705400402446198, 92.10107140696196, 50.936116045571325, 62.61719448155358 
132.47918987243796, 5.866307658102587, 22.705270079767313, 91.39049463950225, 51.067754914140394, 62.6157380951352 
131.58775562130674, 6.131888068531977, 22.705131512300976, 90.67910352731703, 51.201998337336114, 62.61425452174955 
130.69723718666296, 6.401920637361404, 22.70498444314287, 89.96686698432285, 51.33882884987122, 62.612744082242905 
129.80761075329931, 6.676335952880074, 22.704828618925553, 89.25375296987526, 51.47822862927228, 62.61120710605697 
128.91885042343324, 6.955063878793828, 22.704663790262014, 88.53972845763381, 51.62017949569338, 62.60964393129019 
128.0309282214524, 7.238033578562224, 22.704489712186223, 87.82475940351594, 51.764662911592445, 62.60805490475597 
127.14381409971415, 7.525173538680394, 22.704306144590237, 87.10881071269544, 51.9116599812614, 62.606440382037334 
126.25747594531627, 7.816411590873839, 22.704112852657023, 86.39184620559875, 52.061151450200335, 62.60480072753772 
125.37187958775871, 8.111674933176586, 22.703909607288686, 85.67382858285123, 52.21311770432587, 62.60313631452823 
124.48698880741772, 8.410890149866269, 22.703696185529452, 84.95471938912213, 52.36753876900339, 62.60144752519028 
123.60276534475678, 8.713983230231683, 22.70347237098271, 84.23447897581651, 52.5243943078925, 62.59973475065437 
122.71916891020057, 9.020879586151347, 22.7032379542218, 83.51306646255831, 52.68366362159455, 62.597998391033954 
121.83615719460305, 9.331504068463413, 22.702992733193824, 82.79043969740782, 52.845325646090835, 62.59623885545501 
120.95368588024179, 9.645780982110375, 22.702736513616014, 82.06655521575352, 53.009358950959275, 62.594456562080204 
120.07170865227698, 9.963634100043315, 22.702469109364127, 81.34136819781631, 53.175741737357264, 62.592651938128405 
119.19017721061483, 10.284986675873593, 22.702190342852322, 80.61483242470061, 53.34445183575776, 62.5908254198886 
118.30904128212123, 10.609761455261193, 22.701900045404045, 79.88690023292546, 53.515466703424934, 62.58897745272858 
117.4282486331349, 10.937880686031377, 22.701598057613538, 79.15752246736446, 53.68876342161539, 62.58710849109773 
116.54774508223365, 11.26926612701325, 22.70128422969707, 78.42664843252147, 53.86431869249034, 62.58521899852434 
115.66747451321318, 11.60383905559542, 22.70095842183408, 77.69422584206566, 54.04210883572329, 62.583309447606524 
114.78737888824145, 11.941520273996122, 22.700620504497184, 76.9602007665459, 54.222109784787335, 62.581380319997564 
113.90739826115829, 12.282230114246499, 22.700270358770894, 76.22451757920236, 54.40429708290539, 62.57943210638436 
113.02747079089373, 12.625888441887879, 22.69990787665854, 75.48711889978858, 54.58864587864585, 62.57746530645988 
112.14753275498562, 12.972414658384924, 22.69953296137706, 74.74794553631475, 54.775130921145504, 62.57548042888896 
111.26751856318145, 13.321727702258622, 22.6991455276391, 74.00693642461893, 54.96372655494064, 62.57347799126724 
110.38736077111642, 13.67374604894411, 22.69874550192219, 73.26402856566982, 55.15440671438626, 62.57145852007345 
109.50699009406509, 14.028387709380192, 22.69833282272453, 72.51915696050035, 55.34714491764274, 62.569422550614746 
108.62633542077015, 14.385570227338496, 22.697907440807118, 71.77225454266811, 55.54191426020776, 62.567370626964724 
107.74532382735951, 14.745210675501673, 22.697469319421714, 71.0232521081348, 55.73868740797091, 62.565303301894666 
106.86388059136773, 15.107225650301658, 22.697018434524594, 70.27207824245238, 55.93743658976655, 62.563221136797225 
105.9819292058865, 15.471531265529835, 22.696554774975514, 69.51865924514082, 56.13813358940007, 62.56112470160285 
105.09939139387448, 15.838043144732836, 22.696078342721698, 68.7629190511369, 56.34074973712077, 62.55901457468881 
