# MEX_intpoint_lon [deg], MEX_intpoint_lat [deg], MEX_intpoint_angle [deg], TGO_intpoint_lon [deg], TGO_intpoint_lat [deg], TGO_intpoint_angle [deg] 
-104.62956134393905, 20.579232561534187, 22.713386665210606, -172.99920066524982, 58.990681744258936, 62.532383535629315 
-105.52597240615135, 20.191240739462533, 22.71402002122008, -173.78968616965722, 58.76574483879466, 62.53462365686539 
-106.42067508014688, 19.80436129108493, 22.714641697008865, -174.57667800236456, 58.54233665995386, 62.53685792263239 
-107.31376892305609, 19.418685950014247, 22.71525151718988, -175.3602898240799, 58.320492495387306, 62.539085656531 
-108.20535192293258, 19.034305768900126, 22.71584932051877, -176.14063162891708, 58.100247015421296, 62.54130618889027 
-109.09552047706735, 18.651311140789645, 22.716434959913506, -176.9178098726615, 57.88163429133396, 62.54351885695585 
-109.98436937152441, 18.269791819554136, 22.717008302456744, -177.69192759620046, 57.664687812604974, 62.54572300507056 
-110.87199176175642, 17.889836939348573, 22.717569229381297, -178.46308454428274, 57.44944050318866, 62.547917984847125 
-111.75847915417101, 17.511535033071787, 22.718117636038603, -179.23137727977328, 57.23592473685729, 62.55010315533272 
-112.643921388527, 17.13497404979825, 22.71865343185029, -179.99689929356427, 57.02417235165996, 62.552277883166056 
-113.52840662105118, 16.760241371153658, 22.71917654024297, 179.24025888969751, 56.81421466353934, 62.55444154272631 
-114.41202130817409, 16.387423826608654, 22.719686898566454, 178.4800096099098, 56.606082479147005, 62.55659351627419 
-115.29485019079414, 16.016607707666616, 22.72018445799541, 177.72226797368785, 56.39980610789622, 62.558733194085285 
-116.17697627898694, 15.647878780922856, 22.720669183414703, 176.96695176026108, 56.19541537328826, 62.56085997457554 
-117.05848083708611, 15.281322299974596, 22.721141053288633, 176.21398133094795, 55.99293962354804, 62.562973264418694 
-117.93944336907047, 14.917023016161869, 22.72160005951418, 175.46327954206666, 55.792407741601274, 62.56507247865662 
-118.8199416041994, 14.555065188121633, 22.722046207258572, 174.71477166114482, 55.59384815442573, 62.56715704080105 
-119.70005148284808, 14.195532590137985, 22.72247951478136, 173.9683852862933, 55.397288841805874, 62.569226382928676 
-120.57984714249947, 13.83850851927359, 22.72290001324131, 173.2240502686162, 55.20275734452007, 62.57127994576793 
-121.45940090386013, 13.484075801267824, 22.72330774648835, 172.4816986375304, 55.010280771987276, 62.573317178778645 
-122.3387832570713, 13.132316795189277, 22.723702770840855, 171.74126452887566, 54.819885809399345, 62.57533754022431 
-123.21806284799652, 12.783313396831, 22.724085154848687, 171.00268411569604, 54.63159872436368, 62.57734049723698 
-124.0973064645713, 12.437147040838559, 22.724454979042154, 170.2658955415824, 54.44544537307985, 62.57932552587518 
-124.97657902320904, 12.093898701562106, 22.72481233566745, 169.5308388564659, 54.26145120607254, 62.581292111174236 
-125.85594355526236, 11.753648892625232, 22.725157328408702, 168.79745595475822, 54.07964127350255, 62.58323974719039 
-126.73546119354612, 11.416477665204626, 22.725490072097198, 168.06569051573845, 53.90004023007608, 62.58516793703746 
-127.61519115893435, 11.082464605016089, 22.725810692408146, 167.3354879460887, 53.72267233957211, 62.58707619291716 
-128.4951907470482, 10.7516888280041, 22.72611932554526, 166.60679532448617, 53.547561479006376, 62.58896403614268 
-129.37551531505974, 10.424228974733353, 22.726416117913786, 165.8795613481617, 53.374731142450045, 62.59083099715586 
-130.25621826863923, 10.10016320348278, 22.726701225782268, 165.15373628133855, 53.204204444520016, 62.5926766155384 
-131.13735104908184, 9.779569182043804, 22.726974814933563, 164.42927190546942, 53.0360041235573, 62.594500440016475 
-132.01896312065162, 9.46252407822674, 22.727237060305583, 163.70612147119144, 52.87015254450922, 62.596302028459704 
-132.9011019581888, 9.14910454908067, 22.727488145622186, 162.98423965192362, 52.7066717015303, 62.59808094787448 
-133.7838130350283, 8.83938672883455, 22.727728263014804, 162.26358249903333, 52.54558322031643, 62.599836774391314 
-134.6671398112837, 8.533446215568796, 22.727957612635212, 161.54410739850178, 52.38690836018608, 62.60156909324697 
-135.5511237225543, 8.231358056628943, 22.728176402260047, 160.82577302902098, 52.23066801592167, 62.60327749876168 
-136.43580416911783, 7.933196732795066, 22.728384846887465, 160.10853932145784, 52.07688271938405, 62.60496159431043 
-137.32121850567333, 7.639036141222907, 22.728583168326676, 159.39236741962358, 51.92557264091224, 62.60662099229056 
-138.2074020317049, 7.348949577174871, 22.72877159478067, 158.67721964228903, 51.77675759052028, 62.608255314083685 
-139.09438798253817, 7.063009714561352, 22.728950360422886, 157.9630594463886, 51.63045701890226, 62.60986419001376 
-139.98220752116495, 6.781288585315772, 22.729119704968223, 157.24985139135924, 51.48669001825685, 62.61144725930059 
-140.87088973091483, 6.5038575576284225, 22.729279873239097, 156.5375611045615, 51.34547532294141, 62.61300417000959 
-141.76046160905412, 6.230787313067633, 22.729431114726996, 155.82615524773252, 51.20683130996611, 62.61453457899729 
-142.65094806139479, 5.962147822618825, 22.7295736831502, 155.115601484424, 51.07077599933766, 62.61603815185368 
-143.54237189799846, 5.698008321674986, 22.7297078360082, 154.4058684483777, 50.93732705426204, 62.61751456284072 
-144.43475383006017, 5.43843728401469, 22.729833834133412, 153.69692571279626, 50.806501781215424, 62.61896349482802 
-145.32811246806017, 5.183502394806794, 22.72995194124079, 152.98874376046516, 50.67831712989195, 62.620384639225264 
-146.22246432126983, 4.933270522683411, 22.730062423475957, 152.28129395468764, 50.5527896930369, 62.621777695911994 
-147.11782379870033, 4.687807690925785, 22.730165548962308, 151.57454851099217, 50.42993570617328, 62.623142373164995 
-148.01420321158105, 4.447179047810585, 22.730261587347947, 150.8684804695762, 50.309771047229994, 62.624478387582975 
-148.9116127774545, 4.211448836166669, 22.730350809352753, 150.16306366845092, 50.19231123607895, 62.625785464009695 
-149.81006062597376, 3.9806803621954963, 22.730433486316386, 149.45827271725264, 50.07757143398866, 62.627063335454714 
-150.70955280648604, 3.7549359636108344, 22.730509889747744, 148.75408297168855, 49.96556644300142, 62.628311743012816 
-151.61009329748572, 3.534276977156424, 22.730580290876475, 148.05047050858585, 49.85631070524095, 62.62953043578194 
-152.51168401801505, 3.3187637055626364, 22.73064496020714, 147.34741210151387, 49.74981830215721, 62.63071917077975 
-153.4143248410907, 3.1084553840060094, 22.730704167076585, 146.64488519695155, 49.64610295371481, 62.63187771285944 
-154.3180136092289, 2.9034101461378845, 22.730758179215194, 145.9428678909724, 49.54517801753134, 62.63300583462475 
-155.2227461521389, 2.703684989750767, 22.73080726231248, 145.24133890642054, 49.447056487971444, 62.63410331634409 
-156.12851630665008, 2.5093357421534783, 22.730851679587644, 144.54027757055363, 49.35175099520282, 62.63516994586492 
-157.03531593893297, 2.3204170253281187, 22.730891691365734, 143.83966379312778, 49.25927380421935, 62.63620551852741 
-157.94313496906938, 2.136982220943908, 22.73092755465984, 143.13947804490235, 49.16963681383729, 62.637209837078665 
-158.85196139802144, 1.959083435304896, 22.73095952275993, 142.4397013365418, 49.08285155566934, 62.63818271158692 
-159.76178133704235, 1.7867714643100143, 22.730987844828974, 141.74031519789415, 48.998929193081985, 62.63912395935632 
-160.67257903956607, 1.6200957585054756, 22.73101276550663, 141.0413016576258, 48.917880520140805, 62.64003340484253 
-161.5843369356058, 1.4591043883108092, 22.731034524521355, 140.34264322319285, 48.83971596054867, 62.64091087956912 
-162.4970356686833, 1.3038440095007022, 22.731053356311133, 139.64432286113143, 48.76444556658116, 62.64175622204496 
-163.4106541353046, 1.1543598290255712, 22.731069489653546, 138.94632397764806, 48.69207901802375, 62.64256927768309 
-164.32516952698893, 1.0106955712544432, 22.731083147305615, 138.24863039949392, 48.622625621114864, 62.643349898720906 
-165.2405573748488, 0.8728934447238962, 22.731094545653743, 137.5512263551065, 48.556094307499, 62.644097944142025 
-166.15679159671316, 0.740994109476626, 22.731103894374545, 136.85409645600274, 48.49249363319353, 62.64481327959991 
-167.073844546773, 0.6150366450731116, 22.731111396106648, 136.1572256784086, 48.43183177757319, 62.645495777343704 
-167.9916870677244, 0.4950585193591166, 22.731117246134165, 135.46059934511138, 48.37411654237558, 62.646145316145834 
-168.91028854537103, 0.38109555807087925, 22.73112163208215, 134.7642031075197, 48.31935535073123, 62.64676178123232 
-169.82961696564206, 0.27318191535859065, 22.731124733624426, 134.06802292791892, 48.26755524622126, 62.64734506421512 
-170.7496389739707, 0.17135004530733, 22.73112672220422, 133.37204506190827, 48.21872289196596, 62.6478950630276 
-171.6703199369704, 0.07563067453266367, 22.731127760767993, 132.6762560410082, 48.17286456974701, 62.64841168186221 
-172.5916240063365, -0.013947224073859414, 22.731128003512726, 131.9806426554254, 48.12998617916603, 62.64889483111138 
-173.51351418489244, -0.09735645637671352, 22.731127595647088, 131.28519193696394, 48.09009323684229, 62.649344427311334 
-174.4359523946912, -0.17457163073588547, 22.73112667316675, 130.58989114207213, 48.05319087565182, 62.64976039308897 
-175.35889954707403, -0.2455691803869127, 22.73112536264421, 129.89472773501356, 48.01928384401021, 62.650142657112085 
-176.2823156145806, -0.3103273843979504, 22.731123781033325, 129.19968937115237, 47.988376505201245, 62.65049115404274 
-177.20615970459716, -0.36882638714377863, 22.731122035488845, 128.50476388034258, 47.960472836753375, 62.6508058244944 
-178.13039013462176, -0.4210482162406794, 22.73112022320121, 127.80993925041138, 47.935576429865634, 62.651086614992224 
-179.05496450901873, -0.4669767988901511, 22.731118431246824, 127.1152036107274, 47.91369048888491, 62.65133347793719 
-179.9798397971284, -0.5065979765837064, 22.731116736453952, 126.42054521584416, 47.89481783083582, 62.65154637157387 
179.09502758740803, -0.5398995181257781, 22.731115205284514, 125.72595242920946, 47.87896088500454, 62.651725259962 
178.16968170625356, -0.5668711309362332, 22.73111389373182, 125.03141370693255, 47.86612169257787, 62.651870112951684 
177.24416701506067, -0.5875044705991342, 22.731112847234513, 124.33691758159934, 47.856301906338416, 62.65198090616271 
176.3185282813906, -0.6017931486294485, 22.731112100606683, 123.64245264612782, 47.84950279041673, 62.65205762096754 
175.3928105020239, -0.6097327384345472, 22.731111677984405, 122.94800753765462, 47.845725220101144, 62.65210024447849 
174.46705881982302, -0.6113207794527137, 22.731111592788626, 122.25357092144462, 47.844969681705805, 62.65210876953865 
173.54131844030786, -0.6065567794563542, 22.731111847704582, 121.55913147481513, 47.84723627249723, 62.65208319471685 
172.61563454810914, -0.59544221501298, 22.73111243467763, 120.86467787106602, 47.85252470067957, 62.65202352430676 
171.6900522234623, -0.5779805301026016, 22.731113334925638, 120.17019876340828, 47.86083428543876, 62.65192976832983 
170.76461635890615, -0.5541771328956614, 22.73111451896789, 119.47568276888181, 47.87216395704521, 62.65180194254227 
169.83937157634946, -0.5240393907011249, 22.731115946670283, 118.78111845225443, 47.886512257014935, 62.65164006844613 
168.91436214466583, -0.4875766230998514, 22.73111756730709, 118.08649430989412, 47.903877338328705, 62.65144417330406 
167.98963189797655, -0.44480009328363096, 22.731119319638942, 117.39179875360534, 47.92425696570841, 62.651214290158315 
167.0652241547768, -0.3957229976256668, 22.731121132006958, 116.69702009442125, 47.94764851595003, 62.65095045785341 
166.14118163805733, -0.3403604535133915, 22.731122922443017, 116.00214652634307, 47.974048978312446, 62.65065272106279 
165.2175463965691, -0.27872948547951104, 22.731124598795965, 115.30716611001787, 48.00345495496055, 62.65032113031913 
164.2943597273743, -0.21084900967207984, 22.731126058873517, 114.61206675634531, 48.035862661462076, 62.64995574204833 
163.37166209982, -0.1367398167089558, 22.73112719059976, 113.91683621000469, 48.07126792733599, 62.649556618607576 
162.4494930810658, -0.05642455296658868, 22.73112787218801, 113.22146203289246, 48.10966619665164, 62.649123828326246 
161.52789126329026, 0.030072299642752865, 22.731127972328835, 112.5259315874608, 48.1510525286764, 62.648657445551045 
160.60689419269258, 0.1227244453473024, 22.731127350392867, 111.83023201994708, 48.19542159857019, 62.648157550693895 
159.6865383003998, 0.22150379758369074, 22.7311258566483, 111.13435024348405, 48.2427676981248, 62.64762423028369 
158.7668588353812, 0.32638050339129404, 22.731123332492707, 110.43827292108018, 48.293084736545794, 62.647057577020746 
157.84788979946393, 0.4373229690643587, 22.731119610698794, 109.74198644845936, 48.3463662412747, 62.64645768983462 
156.92966388453428, 0.5542978869907598, 22.731114515673912, 109.04547693674833, 48.40260535884891, 62.64582467394465 
156.01221241200196, 0.677270263603206, 22.73110786373292, 108.34873019500044, 48.46179485579667, 62.64515864092363 
155.09556527459458, 0.8062034483668744, 22.731099463383924, 107.65173171254364, 48.52392711956434, 62.64445970876373 
154.1797508805411, 0.9410591637250267, 22.73108911562672, 106.95446664113973, 48.588994159472904, 62.64372800194527 
153.26479610019413, 1.08179753592284, 22.73107661426338, 106.25691977694231, 48.656987607700586, 62.64296365150782 
152.35072621513154, 1.2283771266281296, 22.731061746220686, 105.55907554223923, 48.72789872028835, 62.64216679512339 
151.43756486976915, 1.380754965266594, 22.731044291883816, 104.86091796696606, 48.80171837816465, 62.64133757717181 
150.5253340255076, 1.5388865819885262, 22.731024025441098, 104.16243066997531, 48.878437088185926, 62.640476148818024 
149.61405391742693, 1.7027260411833944, 22.731000715239094, 103.46359684004636, 48.9580449841891, 62.63958266809095 
148.70374301353473, 1.8722259754585364, 22.730974124147735, 102.76439921661989, 49.040531828051876, 62.63865729996422 
147.794417976565, 2.0473376199983844, 22.730944009935023, 102.06482007024039, 49.12588701075705, 62.637700216437764 
146.8860936283165, 2.2280108472208346, 22.730910125650613, 101.36484118268925, 49.21409955345619, 62.636711596621176 
145.97878291651207, 2.414194201648315, 22.73087222001801, 100.66444382679015, 49.305158108528495, 62.63569162681767 
145.07249688415254, 2.605834934911538, 22.730830037834732, 99.96360874586829, 49.39905096063013, 62.634640500608874 
144.16724464133182, 2.802879040805634, 22.73078332037989, 99.26231613284293, 49.495766027729005, 62.63355841894043 
143.26303333947325, 3.0052712903190306, 22.73073180582874, 98.56054560893364, 49.59529086212045, 62.63244559020775 
142.35986814794032, 3.212955266557583, 22.730675229673572, 97.85827620195776, 49.69761265141809, 62.631302230342186 
141.4577522329702, 3.4258733994877595, 22.73061332515045, 97.15548632419737, 49.80271821951508, 62.63012856289685 
140.55668673887095, 3.6439670004249525, 22.73054582367117, 96.45215374981171, 49.91059402750971, 62.628924819132706 
139.65667077142092, 3.867176296194605, 22.730472455259928, 95.74825559177116, 50.021226174589955, 62.62769123810368 
138.75770138340178, 4.095440462896659, 22.730392948994073, 95.0437682782864, 50.13460039887092, 62.62642806674147 
137.85977356219416, 4.328697659205551, 22.730307033448426, 94.33866752870696, 50.25070207817898, 62.62513555993941 
136.9628802193609, 4.5668850591408265, 22.730214437142504, 93.63292832886053, 50.36951623077637, 62.623813980635106 
136.06701218213846, 4.809938884246017, 22.730114888990105, 92.92652490580403, 50.49102751601965, 62.622463599891994 
135.1721581867573, 5.057794435115643, 22.730008118750685, 92.21943070195627, 50.61522023494518, 62.621084696978976 
134.27830487350587, 5.310386122213493, 22.729893857481844, 91.51161834858011, 50.74207833077463, 62.61967755944886 
133.38543678345502, 5.567647495927479, 22.729771837992434, 90.80305963858108, 50.871585389333376, 62.61824248321421 
132.49353635675538, 5.82951127580975, 22.729641795295613, 90.09372549858756, 51.003724639374006, 62.61677977262146 
131.6025839324208, 6.0959093789529035, 22.729503467061285, 89.38358596027666, 51.1384789527975, 62.61528974052236 
130.7125577495106, 6.366772947456641, 22.729356594067315, 88.67261013090751, 51.27583084476371, 62.61377270834288 
129.8234339496228, 6.64203237494141, 22.729200920648946, 87.96076616302302, 51.41576247368322, 62.61222900614919 
128.93518658061075, 6.921617332068868, 22.729036195145778, 87.24802122327817, 51.55825564108152, 62.610658972710546 
128.04778760143745, 7.205456791031461, 22.7288621703458, 86.53434146035258, 51.703291791327004, 62.60906295555898 
127.16120688808233, 7.493479048976328, 22.728678603925832, 85.81969197190168, 51.850852011213185, 62.60744131104534 
126.27541224041575, 7.785611750331492, 22.728485258887744, 85.10403677050003, 52.00091702938584, 62.60579440439167 
125.39036938996114, 8.081781908004748, 22.728281903990034, 84.38733874852755, 52.15346721560505, 62.60412260973962 
124.50604200846391, 8.381915923428547, 22.728068314174067, 83.66955964194774, 52.30848257983161, 62.60242631019484 
123.6223917171907, 8.685939605426519, 22.72784427098441, 82.95065999292434, 52.46594277112763, 62.600705897866646 
122.73937809688489, 8.99377818787987, 22.727609562982774, 82.23059911122078, 52.62582707635956, 62.598961773903596 
121.85695869830728, 9.305356346174223, 22.727363986155034, 81.50933503432465, 52.78811441869267, 62.597194348524035 
120.97508905329414, 9.620598212409941, 22.727107344310653, 80.78682448623601, 52.952783355864675, 62.59540404104172 
120.09372268626925, 9.939427389361024, 22.72683944947411, 80.06302283485701, 53.119812078225976, 62.59359127988632 
119.21281112614963, 10.261766963170144, 22.726560122267806, 79.33788404791632, 53.289178406533765, 62.59175650261865 
118.33230391858899, 10.58753951476919, 22.726269192285812, 78.61136064736007, 53.46085978948625, 62.58990015594023 
117.4521486385081, 10.916667130016902, 22.725966498458156, 77.88340366213744, 53.634833300982876, 62.588022695697475 
116.57229090286451, 11.249071408547172, 22.725651889404975, 77.15396257930638, 53.811075637096074, 62.58612458687949 
115.69267438362036, 11.584673471323224, 22.725325223780214, 76.42298529338161, 53.98956311273879, 62.584206303610564 
114.8132408208706, 11.923393966895018, 22.72498637060424, 75.69041805384386, 54.17027165801216, 62.58226832913579 
113.93393003610069, 12.265153076358564, 22.724635209585134, 74.95620541072607, 54.353176814216425, 62.58031115580075 
113.05467994554644, 12.609870517017942, 22.724271631428056, 74.2202901581888, 54.5382537295074, 62.578335285024636 
112.1754265736362, 12.957465544751896, 22.723895538132293, 73.48261327599327, 54.72547715418065, 62.57634122726671 
111.29610406649967, 13.30785695508905, 22.72350684327568, 72.74311386877719, 54.91482143556382, 62.57432950198589 
110.41664470553457, 13.660963082996547, 22.723105472285884, 72.00172910303456, 55.10626051249727, 62.57230063759372 
109.53697892102863, 14.016701801388981, 22.722691362698285, 71.25839414169704, 55.299767909382005, 62.570255171400035 
108.65703530583946, 14.37499051836561, 22.722264464400002, 70.51304207620947, 55.495316729773016, 62.56819364955179 
107.77674062914332, 14.735746173185106, 22.721824739859755, 69.76560385599035, 55.69287964949474, 62.56611662696431 
106.89601985026856, 15.098885230988762, 22.721372164343308, 69.01600821516112, 55.89242890925478, 62.5640246672455 
106.01479613263805, 15.464323676283982, 22.720906726114062, 68.26418159642662, 56.09393630673021, 62.56191834261241 
105.13299085785061, 15.831977005201674, 22.720428426618643, 67.51004807198267, 56.29737318810023, 62.55979823380062 
