# MEX_intpoint_lon [deg], MEX_intpoint_lat [deg], MEX_intpoint_angle [deg], TGO_intpoint_lon [deg], TGO_intpoint_lat [deg], TGO_intpoint_angle [deg] 
-104.217233365914, 20.48522346724419, 22.46356224139717, -157.8709106739473, 59.15378065571003, 62.52850129481964 
-105.1213538213345, 20.110090465745618, 22.4641650731065, -158.6705647375336, 58.933752154765, 62.53068535877244 
-106.02377437517278, 19.735997193413287, 22.46475709977913, -159.46665032685982, 58.71519715555924, 62.5328638563187 
-106.92458923103959, 19.36303405062026, 22.465338154000875, -160.25928093090803, 58.49815117104833, 62.53503612770191 
-107.82389118916909, 18.991290768294707, 22.465908081438993, -161.04856647140898, 58.282649084066264, 62.53720151955197 
-108.7217716201566, 18.620856426193072, 22.466466740861797, -161.8346134231804, 58.06872516570124, 62.53935938506973 
-109.61832044007492, 18.251819470384035, 22.46701400414237, -162.6175249302242, 57.85641309267274, 62.541509084203646 
-110.51362608683654, 17.884267729907258, 22.467549756246672, -163.39740091770497, 57.6457459637567, 62.543649983819265 
-111.40777549768016, 17.518288432572547, 22.46807389520578, -164.17433819993502, 57.43675631530279, 62.54578145786119 
-112.3008540876673, 17.15396821986776, 22.46858633207262, -164.9484305844909, 57.229476135886486, 62.54790288750744 
-113.19294572908458, 16.791393160945272, 22.4690869908632, -165.71976897258645, 57.023936880136056, 62.550013661316264 
-114.08413273165513, 16.430648765659285, 22.469575808482368, -166.4884414558279, 56.82016948177306, 62.552113175365974 
-114.97449582347099, 16.071819996627784, 22.470052734634333, -167.25453340947362, 56.61820436590302, 62.55420083338657 
-115.86411413256658, 15.714991280294608, 22.470517731718164, -168.01812758232128, 56.41807146059135, 62.55627604688448 
-116.75306516906106, 15.36024651696917, 22.47097077470818, -168.7793041833424, 56.21980020775771, 62.558338235259825 
-117.6414248078048, 15.007669089822501, 22.47141185101976, -169.53814096518255, 56.023419573420895, 62.56038682591608 
-118.52926727147307, 14.657341872820286, 22.471840960360538, -170.29471330464233, 55.828958057324435, 62.562421254362654 
-119.4166651140571, 14.30934723757467, 22.47225811456725, -171.04909428025312, 55.636443701971864, 62.5644409643102 
-120.3036892047092, 13.963767059098489, 22.47266333742859, -171.80135474705662, 55.445904101099295, 62.56644540775863 
-121.19040871190687, 13.620682720446643, 22.473056664494212, -172.55156340869715, 55.25736640761178, 62.56843404507807 
-122.07689108790525, 13.28017511623127, 22.473438142870158, -173.2997868869299, 55.07085734100844, 62.570406345082986 
-122.96320205345663, 12.942324654998213, 22.4738078310011, -174.04608978864752, 54.886403194320444, 62.572361785099034 
-123.84940558277893, 12.607211260454331, 22.474165798439625, -174.79053477052327, 54.70402984058492, 62.57429985102322 
-124.73556388876399, 12.274914371536244, 22.474512125602843, -175.5331826013659, 54.52376273887644, 62.57622003737749 
-125.62173740842039, 11.945512941312693, 22.474846903516852, -176.27409222227953, 54.34562693991726, 62.57812184735534 
-126.50798478855246, 11.619085434714423, 22.47517023354911, -177.01332080471659, 54.16964709128633, 62.5800047928623 
-127.39436287168255, 11.29570982508649, 22.47548222712939, -177.75092380651188, 53.99584744224595, 62.581868394549765 
-128.2809266822283, 10.975463589560198, 22.475783005459476, -178.48695502597928, 53.82425184820489, 62.583712181842586 
-129.1677294129533, 10.658423703242764, 22.47607269921211, -179.22146665415374, 53.65488377483499, 62.58553569296071 
-130.05482241171322, 10.344666632225033, 22.47635144821957, -179.95450932525404, 53.487766301858485, 62.58733847493471 
-130.9422551685251, 10.034268325408846, 22.476619401152266, 179.3138678345566, 53.32292212652173, 62.58912008361541 
-131.83007530299213, 9.727304205157786, 22.476876715187863, 178.5836171600419, 53.1603735667713, 62.59088008367811 
-132.71832855212108, 9.423849156776532, 22.477123555671284, 177.85469240132508, 53.00014256414665, 62.59261804862087 
-133.60705875857232, 9.123977516826178, 22.477360095766088, 177.1270486798161, 52.84225068640401, 62.5943335607579 
-134.49630785938902, 8.827763060284687, 22.477586516097794, 176.40064244556945, 52.686719129884985, 62.59602621120739 
-135.38611587525355, 8.535278986563567, 22.477803004389347, 175.67543143601014, 52.53356872164285, 62.59769559987456 
-136.2765209003245, 8.24659790439415, 22.47800975508958, 174.9513746359687, 52.38281992133931, 62.599341335429706 
-137.16755909270998, 7.961791815598814, 22.478206968994858, 174.22843223896774, 52.23449282292376, 62.60096303528176 
-138.05926466563685, 7.680932097764645, 22.478394852864522, 173.50656560970504, 52.08860715610659, 62.602560325547095 
-138.95166987937836, 7.4040894858392745, 22.47857361903077, 172.7857372476803, 51.9451822876379, 62.60413284101453 
-139.84480503400442, 7.131334052671189, 22.478743485003207, 172.06591075191503, 51.804237222402286, 62.60568022510568 
-140.73869846302307, 6.8627351885186165, 22.478904673068868, 171.3470507867162, 51.66579060434019, 62.6072021298318 
-141.63337652798114, 6.598361579554054, 22.47905740988806, 170.62912304843738, 51.52986071720566, 62.608698215746735 
-142.52886361409657, 6.338281185393514, 22.47920192608664, 169.91209423319216, 51.39646548517048, 62.61016815189654 
-143.42518212699446, 6.08256121568226, 22.479338455845287, 169.19593200547658, 51.265622473283635, 62.611611615765646 
-144.32235249062094, 5.831268105771128, 22.479467236486194, 168.480604967659, 51.137348887795355, 62.613028293219955 
-145.22039314640915, 5.584467491520279, 22.479588508057887, 167.76608263029834, 51.0116615763543, 62.614417878447114 
-146.11932055377312, 5.342224183269494, 22.479702512918582, 167.05233538325163, 50.88857702808625, 62.61578007389407 
-147.01914919200402, 5.10460213901677, 22.479809495318683, 166.3393344675346, 50.76811137356259, 62.61711459020221 
-147.91989156364403, 4.871664436849633, 22.479909700983026, 165.62705194790036, 50.65028038466599, 62.61842114614005 
-148.82155819941227, 4.64347324667578, 22.480003376693293, 164.91546068610228, 50.5350994743614, 62.61969946853418 
-149.72415766475538, 4.420089801302529, 22.480090769871303, 164.20453431480874, 50.42258369637917, 62.62094929219798 
-150.6276965680949, 4.201574366916646, 22.480172128163538, 163.4942472121386, 50.31274774481749, 62.622170359859105 
-151.53217957084104, 3.987986213018816, 22.480247699027714, 162.78457447678818, 50.20560595367134, 62.623362422085215 
-152.4376093992404, 3.7793835818691317, 22.480317729321616, 162.07549190372038, 50.101172296293896, 62.624525237208644 
-153.34398685812243, 3.575823657502381, 22.480382464895055, 161.36697596038942, 49.99946038479728, 62.625658571250064 
-154.25131084660643, 3.3773625343740714, 22.480442150185265, 160.6590037634746, 49.90048346939871, 62.62676219784118 
-155.1595783758268, 3.1840551857001063, 22.480497027816376, 159.95155305609742, 49.804254437717816, 62.627835898147126 
-156.06878458873194, 2.995955431555094, 22.48054733820349, 159.2446021854992, 49.71078581403111, 62.628879460788184 
-156.9789227820047, 2.813115906796125, 22.480593319161787, 158.53813008115452, 49.62008975848909, 62.62989268176131 
-157.8899844301517, 2.635588028880374, 22.48063520552138, 157.83211623329976, 49.53217806630123, 62.63087536436196 
-158.80195921179998, 2.463421965646656, 22.48067322874815, 157.12654067185417, 49.44706216689436, 62.63182731910568 
-159.71483503823626, 2.296666603132236, 22.48070761657134, 156.42138394571396, 49.36475312304902, 62.632748363650435 
-160.62859808421743, 2.1353695134974395, 22.480738592618188, 155.71662710239931, 49.285261630018944, 62.63363832271939 
-161.54323282107453, 1.9795769231317741, 22.480766376056188, 155.01225166803573, 49.208598014638184, 62.63449702802427 
-162.4587220521266, 1.8293336810157383, 22.480791181243486, 154.3082396276518, 49.13477223442041, 62.63532431819005 
-163.3750469504137, 1.6846832274133166, 22.480813217387706, 153.60457340577545, 49.063793876654515, 62.636120038680374 
-164.29218709875113, 1.5456675629704801, 22.480832688213894, 152.90123584731296, 48.99567215750096, 62.63688404172452 
-165.21012053209998, 1.412327218295053, 22.480849791641763, 152.19821019869394, 48.93041592109261, 62.63761618624577 
-166.12882378224188, 1.2847012240931794, 22.48086471947297, 151.4954800892675, 48.86803363864382, 62.63831633779132 
-167.04827192473738, 1.1628270819372954, 22.480877657088456, 150.7930295129343, 48.80853340757172, 62.638984368464044 
-167.96843862814086, 1.0467407357398453, 22.480888783156672, 150.09084281000105, 48.75192295063279, 62.63962015685621 
-168.8892962054357, 0.9364765440060978, 22.48089826935274, 149.3889046492427, 48.698209615078355, 62.64022358798537 
-169.81081566764695, 0.8320672529381681, 22.480906280089037, 148.6872000101604, 48.64740037183197, 62.64079455323215 
-170.73296677957973, 0.7335439704610546, 22.480912972257702, 147.98571416542146, 48.599501814691855, 62.64133295028088 
-171.65571811762453, 0.6409361412396476, 22.480918494985122, 147.2844326634698, 48.55452015956101, 62.64183868306249 
-172.57903712956235, 0.5542715227538408, 22.48092298939899, 146.58334131129476, 48.512461243707996, 62.64231166169979 
-173.50289019629534, 0.4735761624964842, 22.4809265884081, 145.88242615734669, 48.47333052506057, 62.64275180245607 
-174.42724269542097, 0.39887437635657347, 22.480929416495165, 145.1816734745887, 48.43713308153487, 62.64315902768595 
-175.35205906656066, 0.33018872824717577, 22.480931589523056, 144.4810697436737, 48.40387361040217, 62.64353326578973 
-176.27730287834655, 0.267540011034769, 22.48093321455453, 143.78060163623584, 48.373556427695284, 62.64387445117042 
-177.20293689696416, 0.2109472288231693, 22.48093438968594, 143.08025599828719, 48.34618546765662, 62.64418252419411 
-178.12892315614098, 0.16042758064210938, 22.48093520389481, 142.38001983370893, 48.32176428222954, 62.64445743115348 
-179.05522302846708, 0.1159964455864933, 22.480935736901884, 141.67988028782813, 48.300296040594716, 62.64469912423485 
-179.98179729792616, 0.07766736944875059, 22.480936059047416, 140.97982463107033, 48.28178352875278, 62.64490756148834 
179.09139376648756, 0.04545205288248821, 22.480936231182216, 140.27984024267897, 48.26622914915476, 62.64508270680165 
178.16439033619784, 0.01936034113145764, 22.480936304573383, 139.5799145944926, 48.25363492038113, 62.6452245298773 
177.2372329476531, -0.0005997846465034282, 22.48093632082493, 138.88003523477113, 48.24400247687085, 62.6453330062135 
176.30996242625045, -0.014422214435528215, 22.480936311813366, 138.18018977206228, 48.237333068700785, 62.6454081170885 
175.38261980971626, -0.022102714777180742, 22.480936299638394, 137.48036585909986, 48.23362756141653, 62.64544984954869 
174.4552462710872, -0.023638932529737415, 22.48093629658871, 136.78055117672497, 48.23288643591491, 62.64545819640035 
173.52788304143564, -0.01903039696015489, 22.480936305123016, 136.08073341782213, 48.235109788378516, 62.64543315620493 
172.6005713324857, -0.008278520162836058, 22.480936317866185, 135.38090027126142, 48.24029733026276, 62.64537473327827 
171.67335225926567, 0.008613404196247133, 22.48093631762069, 134.68103940583907, 48.24844838833499, 62.64528293769316 
170.746266762943, 0.031640203806200126, 22.480936277393198, 133.9811384542069, 48.259561904766045, 62.64515778528608 
169.8193555339873, 0.06079483230028126, 22.480936160436343, 133.28118499678328, 48.27363643727363, 62.64499929766701 
168.89265893580477, 0.09606837549389861, 22.48093592030558, 132.58116654563642, 48.29067015931731, 62.644807502233476 
167.96621692898609, 0.13745005925354242, 22.4809355009311, 131.8810705283319, 48.31066086034429, 62.6445824321877 
167.04006899630724, 0.1849272589737232, 22.480934836704673, 131.18088427173547, 48.333605946085584, 62.64432412655771 
166.11425406861855, 0.23848551063469797, 22.480933852581245, 130.4805949857624, 48.35950243890133, 62.64403263022183 
165.18881045175488, 0.2981085234089161, 22.480932464195323, 129.78018974706484, 48.3883469781744, 62.643707993936644 
164.2637757545943, 0.3637781937803036, 22.480930577991817, 129.0796554826474, 48.4201358207511, 62.64335027436832 
163.33918681838878, 0.43547462113586805, 22.480928091371254, 128.37897895340257, 48.4548648414275, 62.64295953412763 
162.41507964748465, 0.5131761247854637, 22.480924892849146, 127.67814673755551, 48.492529533479924, 62.64253584180776 
161.4914893415445, 0.596859262361595, 22.480920862229326, 126.97714521400975, 48.53312500923796, 62.64207927202569 
160.56845002937715, 0.6864988495476592, 22.480915870790966, 126.27596054558252, 48.57664600069807, 62.64158990546651 
159.64599480447455, 0.7820679810796972, 22.480909781489125, 125.5745786621204, 48.623086860175974, 62.641067828930936 
158.72415566234878, 0.8835380529633716, 22.480902449168404, 124.87298524348451, 48.6724415609955, 62.640513135385376 
157.8029634397543, 0.9908787858454647, 22.480893720789652, 124.17116570239396, 48.72470369821165, 62.63992592401534 
156.88244775587407, 1.1040582494760018, 22.480883435669163, 123.46910516711708, 48.779866489365496, 62.63930630028098 
155.9626369555395, 1.2230428881952864, 22.480871425730225, 122.76678846399798, 48.83792277526829, 62.63865437597558 
155.04355805454838, 1.3477975473775932, 22.480857515766687, 122.06420009980721, 48.89886502081184, 62.637970269286406 
154.12523668713482, 1.4782855007616722, 22.480841523718023, 121.36132424390331, 48.96268531580253, 62.63725410485769 
153.20769705563927, 1.6144684785966155, 22.480823260955795, 120.65814471019297, 49.02937537581566, 62.63650601385597 
152.290961882418, 1.7563066965302145, 22.48080253258084, 119.95464493887589, 49.09892654306691, 62.6357261340374 
151.37505236402353, 1.9037588851660863, 22.480779137731044, 119.25080797796087, 49.17132978729768, 62.63491460981683 
150.45998812767994, 2.0567823202148743, 22.48075286989915, 118.54661646453819, 49.246575706670505, 62.63407159233874 
149.54578719006943, 2.215332853164511, 22.480723517260166, 117.84205260579348, 49.324654528671005, 62.6331972395496 
148.63246591843844, 2.379364942394132, 22.480690863008114, 117.13709815974747, 49.40555611101243, 62.6322917162717 
147.7200389940251, 2.5488316846563217, 22.48065468570139, 116.43173441570521, 49.48926994253865, 62.631355194278036 
146.80851937780184, 2.7236848468524393, 22.48061475961655, 115.72594217439769, 49.575785144121596, 62.630387852368514 
145.89791827852045, 2.9038748980266074, 22.48057085510991, 115.01970172779832, 49.66509046954846, 62.629389876446595 
144.9882451230407, 3.089351041504023, 22.480522738986497, 114.31299283859602, 49.75717430639441, 62.62836145959708 
144.07950752891605, 3.2800612471008455, 22.480470174875872, 113.60579471930515, 49.852024676875786, 62.627302802164024 
143.1717112792055, 3.475952283333437, 22.480412923614384, 112.89808601099311, 49.94962923867909, 62.62621411182885 
142.264860299474, 3.6769697495563327, 22.48035074363323, 112.1898447616038, 50.04997528576059, 62.6250956036892 
141.35895663693876, 3.8830581079596613, 22.48028339135193, 111.48104840385615, 50.15304974911123, 62.623947500336854 
140.4540004417135, 4.094160715358389, 22.480210621576646, 110.77167373269435, 50.25883919748143, 62.622770031935936 
139.54998995009973, 4.310219854707439, 22.480132187902765, 110.06169688226652, 50.36732983806004, 62.62156343630032 
138.64692146986718, 4.531176766278826, 22.480047843121316, 109.35109330240701, 50.47850751710176, 62.620327958970535 
137.7447893674647, 4.756971678438727, 22.479957339628672, 108.63983773459671, 50.59235772049673, 62.619063853289575 
136.84358605709804, 4.9875438379646875, 22.479860429838837, 107.92790418737472, 50.708865574276224, 62.61777138047776 
135.9433019916074, 5.222831539845418, 22.479756866598052, 107.21526591117302, 50.8280158450478, 62.6164508097061 
135.0439256550778, 5.462772156507751, 22.479646403600896, 106.5018953725455, 50.949792940353355, 62.61510241816824 
134.14544355710947, 5.707302166417931, 22.479528795807532, 105.78776422776075, 51.07418090894298, 62.61372649115074 
133.24784022867757, 5.956357182006603, 22.479403799861434, 105.07284329572687, 51.20116344095753, 62.61232332210115 
132.35109821950604, 6.209871976869617, 22.479271174507065, 104.35710253021541, 51.33072386801257, 62.61089321269421 
131.4551980968823, 6.467780512198874, 22.479130681007096, 103.64051099135013, 51.46284516317568, 62.609436472895474 
130.56011844583642, 6.730015962400466, 22.478982083558275, 102.92303681632427, 51.59750994082966, 62.60795342102252 
129.66583587061078, 6.996510739859277, 22.478825149705834, 102.20464718930968, 51.73470045641286, 62.6064443838032 
128.77232499734424, 7.267196518812488, 22.47865965075551, 101.48530831051794, 51.87439860602864, 62.604909696431015 
127.87955847789732, 7.542004258296131, 22.478485362182873, 100.76498536437364, 52.01658592591465, 62.603349702617315 
126.98750699474448, 7.820864224132019, 22.478302064039358, 100.04364248675714, 52.16124359176307, 62.60176475464002 
126.09613926686204, 8.10370600992458, 22.478109541354304, 99.32124273127266, 52.30835241788234, 62.600155213388746 
125.20542205654073, 8.390458557039402, 22.477907584532872, 98.59774803449619, 52.457892856190284, 62.59852144840625 
124.31532017705517, 8.68105017353814, 22.47769598974874, 97.87311918015479, 52.60984499502879, 62.596863837925696 
123.4257965011232, 8.975408552046268, 22.477474559331643, 97.14731576218816, 52.76418855778904, 62.59518276890388 
122.53681197009243, 9.273460786533096, 22.47724310214879, 96.42029614664017, 52.920902901336795, 62.59347863705004 
121.64832560379213, 9.575133387984977, 22.47700143397994, 95.69201743232667, 53.07996701422574, 62.59175184684999 
120.76029451099335, 9.88035229895569, 22.476749377885483, 94.96243541022318, 53.24135951468762, 62.590002811585734 
119.87267390042275, 10.189042906979319, 22.476486764567067, 94.23150452151452, 53.40505864838628, 62.58823195334997 
118.98541709227852, 10.501130056833716, 22.476213432720357, 93.49917781424507, 53.571042285923184, 62.58643970305543 
118.0984755302022, 10.816538061644163, 22.47592922937937, 92.76540689850708, 53.73928792008081, 62.584626500439285 
117.21179879366255, 11.135190712819076, 22.475634010251998, 92.03014190010094, 53.909772662790125, 62.58279279406165 
116.32533461071269, 11.45701128881158, 22.475327640046146, 91.29333141259947, 54.082473241807534, 62.58093904129886 
115.43902887108626, 11.781922562702205, 22.47500999278628, 90.55492244774557, 54.25736599708637, 62.579065708330816 
114.55282563960198, 12.109846808600395, 22.474680952119645, 89.81486038410917, 54.43442687682689, 62.57717327012249 
113.66666716985243, 12.440705806863571, 22.47434041161203, 89.07308891392793, 54.613631433188665, 62.57526221039923 
112.78049391815593, 12.774420848134735, 22.47398827503249, 88.32954998805204, 54.79495481764792, 62.57333302161619 
111.89424455775736, 13.11091273620082, 22.47362445662671, 87.58418375891128, 54.97837177598193, 62.57138620492109 
111.00785599326755, 13.450101789675971, 22.473248881378655, 86.83692852141968, 55.16385664286201, 62.569422270110685 
110.1212633753376, 13.791907842515037, 22.472861485260047, 86.08772065172946, 55.3513833360351, 62.56744173558072 
109.23440011556966, 14.136250243364493, 22.4724622154675, 85.33649454374378, 55.54092535007375, 62.56544512826914 
108.34719790167105, 14.48304785375932, 22.47205103064675, 84.583182543294, 55.73245574967302, 62.5634329835925 
107.45958671286606, 14.832219045175727, 22.471627901103908, 83.82771487988471, 55.92594716247185, 62.56140584537536 
106.5714948355842, 15.183681694951296, 22.47119280900324, 83.07001959590634, 56.12137177137536, 62.559364265773034 
105.68284887945174, 15.537353181085356, 22.470745748551284, 82.31002247321263, 56.318701306353645, 62.55730880518696 
104.7935737936184, 15.893150375934013, 22.47028672616704, 81.54764695695634, 56.517907035691195, 62.55524003217304 
