# MEX_intpoint_lon [deg], MEX_intpoint_lat [deg], MEX_intpoint_angle [deg], TGO_intpoint_lon [deg], TGO_intpoint_lat [deg], TGO_intpoint_angle [deg] 
-103.83954950161886, 20.396435488862142, 22.241449684860807, -145.29415131406773, 58.96526276475454, 62.530624304475495 
-104.7503502607699, 20.03298258345028, 22.242025472827294, -146.08336343657905, 58.73963358758048, 62.53287223309546 
-105.65946468031935, 19.67050561882684, 22.242591212087735, -146.8690929273119, 58.51554084127064, 62.53511426451444 
-106.56698210091083, 19.309093634268695, 22.24314674231993, -147.6514534446838, 58.29301978333601, 62.53734972001801 
-107.47299060404765, 18.94883501360338, 22.243691915365876, -148.43055496790961, 58.07210505585305, 62.53957792766942 
-108.37757698236393, 18.589817500746882, 22.244226595251355, -149.2065039263167, 57.85283070371809, 62.54179822249849 
-109.28082671137363, 18.232128214575354, 22.244750658190767, -149.97940332374387, 57.63523019187163, 62.544009946682664 
-110.18282392257426, 17.875853663093167, 22.245263992577378, -150.74935285819421, 57.419336421543186, 62.5462124497202 
-111.083651377792, 17.52107975686112, 22.24576649895893, -151.51644903691385, 57.20518174556354, 62.54840508859505 
-111.98339044466147, 17.16789182165185, 22.246258089998662, -152.28078528706234, 56.99279798279056, 62.55058722793432 
-112.88212107314202, 16.816374610300446, 22.246738690422088, -153.04245206214037, 56.78221643169056, 62.552758240157495 
-113.77992177297885, 16.466612313721356, 22.24720823694923, -153.8015369443352, 56.573467883116855, 62.55491750561762 
-114.67686959202594, 16.11868857106379, 22.24766667821279, -154.5581247429416, 56.366582632324096, 62.5570644127349 
-115.57304009535397, 15.772686478980004, 22.248113974662246, -155.3122975890121, 56.161590490255016, 62.55919835812216 
-116.46850734507386, 15.428688599982612, 22.248550098454043, -156.0641350263848, 55.958520794135175, 62.56131874670256 
-117.36334388081382, 15.08677696986858, 22.248975033328023, -156.8137140992355, 55.757402417408734, 62.56342499181956 
-118.2576207007936, 14.747033104189518, 22.24938877447044, -157.56110943629335, 55.558263779047216, 62.565516515338985 
-119.15140724344725, 14.40953800374904, 22.249791328363557, -158.30639333185755, 55.36113285226125, 62.56759274774362 
-120.04477136955165, 14.074372159110116, 22.25018271262218, -159.04963582374634, 55.16603717264436, 62.56965312822006 
-120.93777934482432, 13.741615554096255, 22.250562955817404, -159.7909047683065, 54.97300384577582, 62.57169710473813 
-121.83049582296, 13.411347668272521, 22.250932097287635, -160.53026591260553, 54.78205955430901, 62.5737241341228 
-122.72298382908215, 13.083647478393258, 22.251290186937457, -161.26778296392672, 54.59323056456973, 62.57573368211883 
-123.61530474359026, 12.758593458805667, 22.251637285024316, -162.00351765668003, 54.40654273268852, 62.577725223447985 
-124.5075182863905, 12.436263580799022, 22.25197346193356, -162.73752981684092, 54.22202151028926, 62.57969824185966 
-125.39968250150228, 12.116735310891737, 22.25229879794203, -163.4698774240216, 54.03969194975583, 62.58165223017363 
-126.29185374203804, 11.800085608049455, 22.252613382970534, -164.20061667127825, 53.85957870909714, 62.58358669031689 
-127.18408665556046, 11.486390919828931, 22.25291731632561, -164.92980202275203, 53.681706056430414, 62.5855011333531 
-128.0764341698239, 11.17572717744458, 22.253210706430906, -165.65748626923792, 53.50609787410129, 62.58739507950554 
-128.96894747891423, 10.86816978975547, 22.25349367054845, -166.3837205817733, 53.3327776624587, 62.5892680581739 
-129.86167602980356, 10.56379363617288, 22.253766334490372, -167.10855456333204, 53.16176854330179, 62.59111960794437 
-130.754667509343, 10.262673058489721, 22.25402883232133, -167.8320362987091, 52.993093263015155, 62.592949276593906 
-131.64796783171872, 9.964881851635273, 22.25428130605202, -168.5542124026753, 52.82677419540817, 62.59475662108835 
-132.5416211264033, 9.67049325336009, 22.254523905324362, -169.2751280664791, 52.662833344273444, 62.59654120757477 
-133.4356697266353, 9.379579932858219, 22.254756787088592, -169.9948271027706, 52.50129234567878, 62.59830261136813 
-134.33015415846657, 9.092213978335293, 22.254980115272748, -170.7133519890167, 52.342172470006695, 62.600040416932735 
-135.22511313041844, 8.80846688353332, 22.25519406044511, -171.43074390947763, 52.185494623754465, 62.60175421785793 
-136.1205835237922, 8.528409533224774, 22.255398799469855, -172.14704279580832, 52.0312793511077, 62.603443616829345 
-137.01660038368172, 8.25211218769076, 22.255594515156524, -172.86228736634803, 51.879546835299585, 62.605108225594726 
-137.91319691073988, 7.979644466200062, 22.255781395903686, -173.57651516415774, 51.730316899767736, 62.606747664925294 
-138.8104044537521, 7.711075329507699, 22.255959635337426, -174.28976259386303, 51.58360900911966, 62.608361564572675 
-139.70825250307323, 7.446473061394436, 22.25612943194484, -175.00206495735702, 51.43944226991827, 62.609949563221505 
-140.60676868498615, 7.185905249270054, 22.256290988703373, -175.71345648841634, 51.297835431297344, 62.61151130843791 
-141.5059787570422, 6.929438763866049, 22.25644451270625, -176.42397038628079, 51.15880688541767, 62.61304645661418 
-142.4059066044445, 6.67713973804546, 22.256590214784527, -177.13363884824403, 51.02237466777311, 62.61455467290977 
-143.30657423753834, 6.429073544759606, 22.256728309126462, -177.84249310130332, 50.8885564573564, 62.61603563118896 
-144.20800179047114, 6.18530477418413, 22.256859012894342, -178.55056343291076, 50.75736957669355, 62.61748901395522 
-145.11020752108757, 5.945897210068835, 22.256982545839683, -179.25787922086977, 50.628830991755635, 62.618914512282586 
-146.01320781212405, 5.710913805338174, 22.25709912991701, -179.9644689624168, 50.50295731175662, 62.62031182574424 
-146.91701717376807, 5.48041665698148, 22.257208988896785, 179.32963969747206, 50.37976478884514, 62.62168066233878 
-147.8216482476463, 5.254466980274455, 22.257312347978242, 178.62441993851374, 50.259269317698404, 62.62302073841385 
-148.727111812306, 5.033125082375445, 22.257409433402177, 177.91984573825255, 50.14148643502565, 62.624331778587816 
-149.6334167902516, 4.816450335342627, 22.257500472064695, 177.215891845864, 50.02643131898867, 62.62561351566962 
-150.54057025659907, 4.604501148619962, 22.257585691132036, 176.51253375659374, 49.914118788546574, 62.62686569057692 
-151.44857744940634, 4.397334941042375, 22.257665317657253, 175.80974768680156, 49.804563302731616, 62.62808805225283 
-152.35744178173866, 4.195008112412287, 22.257739578199132, 175.10751054957976, 49.69777895986274, 62.629280357581365 
-153.26716485552262, 3.997576014701892, 22.257808698443785, 174.40579993091757, 49.593779496703476, 62.63044237130214 
-154.17774647724173, 3.8050929229374213, 22.25787290282961, 173.70459406638403, 49.49257828757036, 62.63157386592401 
-155.08918467552232, 3.617612005823283, 22.257932414175972, 173.00387181830314, 49.39418834339773, 62.63267462163841 
-156.00147572065492, 3.435185296165967, 22.25798745331608, 172.30361265339587, 49.298622310765104, 62.633744426232106 
-156.9146141460924, 3.2578636611589786, 22.258038238734674, 171.60379662086544, 49.20589247089253, 62.63478307500031 
-157.82859277196224, 3.085696772591535, 22.258084986210843, 170.90440433090234, 49.11601073860942, 62.63579037065924 
-158.7434027306251, 2.918733077045167, 22.25812790846662, 170.20541693358726, 49.028988661302215, 62.63676612325949 
-159.65903349430744, 2.7570197661434666, 22.258167214821594, 169.50681609817082, 48.944837417845875, 62.63771015009986 
-160.5754729048302, 2.6006027469211515, 22.258203110854264, 168.8085839927096, 48.863567817524164, 62.63862227564162 
-161.49270720545084, 2.4495266123796107, 22.25823579807034, 168.11070326403924, 48.78519029894342, 62.63950233142391 
-162.41072107482864, 2.3038346122965225, 22.258265473578604, 167.41315701806647, 48.70971492894451, 62.64035015598024 
-163.32949766311955, 2.1635686243577035, 22.258292329774616, 166.71592880036124, 48.637151401517066, 62.641165594756266 
-164.24901863019855, 2.0287691256794935, 22.25831655403286, 166.0190025770328, 48.56750903672057, 62.64194850002906 
-165.1692641860014, 1.899475164790163, 22.25833832840754, 165.32236271587317, 48.500796779616095, 62.642698730827924 
-166.09021313297237, 1.7757243341384035, 22.25835782934256, 164.62599396775204, 48.437023199212724, 62.64341615285722 
-167.0118429105961, 1.6575527431966748, 22.258375227391074, 163.92988144824807, 48.37619648743218, 62.644100638421186 
-167.93412964198635, 1.5449949922266182, 22.25839068694482, 163.23401061950258, 48.31832445809558, 62.644752066350755 
-168.8570481824958, 1.4380841467726042, 22.258404365973824, 162.53836727228116, 48.26341454593532, 62.64537032193298 
-169.78057217030653, 1.3368517129486652, 22.258416415776693, 161.84293750823028, 48.21147380563556, 62.64595529684273 
-170.7046740789514, 1.2413276135824893, 22.258426980741756, 161.14770772231552, 48.16250891090439, 62.646506889077116 
-171.62932527171122, 1.1515401652786608, 22.258436198119536, 160.45266458543009, 48.11652615358034, 62.64702500289272 
-172.55449605782542, 1.0675160564614834, 22.258444197806774, 159.75779502716023, 48.07353144277645, 62.64750954874563 
-173.4801557504474, 0.989280326455682, 22.258451102142274, 159.06308621869746, 48.033530304063945, 62.64796044323464 
-174.4062727262681, 0.9168563456610037, 22.258457025714815, 158.36852555588558, 47.99652787869844, 62.648377609047586 
-175.3328144867274, 0.8502657968741305, 22.258462075183523, 157.67410064239195, 47.96252892289062, 62.64876097491083 
-176.25974772072396, 0.7895286578087318, 22.258466349110787, 156.97979927299298, 47.931537807123675, 62.64911047554225 
-177.18703836873098, 0.7346631848615083, 22.258469937807995, 156.2856094169633, 47.90355851551939, 62.64942605160772 
-178.11465168821718, 0.6856858981688578, 22.25847292319435, 155.59151920155892, 47.87859464525476, 62.64970764968121 
-179.04255232027023, 0.6426115679956056, 22.25847537866885, 154.89751689558494, 47.85664940603055, 62.64995522220818 
-179.9707043573118, 0.6054532024936871, 22.258477368995703, 154.20359089303855, 47.837725619593684, 62.65016872747318 
179.10092858820846, 0.5742220368649595, 22.25847895020327, 153.50972969681786, 47.82182571931437, 62.650348129571036 
178.1723833142579, 0.5489275239586965, 22.258480169496654, 152.81592190248813, 47.808951749819265, 62.65049339838181 
177.2436969589263, 0.5295773263301283, 22.258481065184153, 152.12215618209626, 47.79910536668192, 62.65060450954985 
176.3149069295154, 0.5161773097826137, 22.25848166661755, 151.42842126802523, 47.7922878361709, 62.65068144446658 
175.38605083113958, 0.5087315384116016, 22.25848199414632, 150.7347059368796, 47.78850003505662, 62.650724190257534 
174.45716639496666, 0.5072422711646343, 22.258482059086077, 150.0409989933941, 47.78774245047729, 62.65073273977309 
173.52829140622825, 0.5117099599270142, 22.25848186370078, 149.3472892543567, 47.79001517986427, 62.65070709158368 
172.59946363213209, 0.5221332491386516, 22.25848140119934, 148.6535655325377, 47.79531793092716, 62.650647249978476 
171.67072074980652, 0.5385089769432241, 22.258480655746133, 147.95981662061712, 47.803650021698644, 62.650553224968604 
170.74210027441015, 0.5608321778662904, 22.258479602485675, 147.2660312751014, 47.81501038063873, 62.650425032294244 
169.81363948753602, 0.5890960870148103, 22.258478207581362, 146.57219820022152, 47.82939754679855, 62.6502626934356 
168.88537536604105, 0.6232921457861024, 22.258476428268118, 145.87830603180407, 47.846809670042894, 62.65006623562809 
167.9573445114275, 0.6634100090700307, 22.25847421291919, 145.18434332110675, 47.867244511331016, 62.64983569188142 
167.02958307990303, 0.7094375539240441, 22.258471501126493, 144.49029851860973, 47.89069944305499, 62.649571101002515 
166.10212671324135, 0.7613608896965981, 22.258468223794942, 143.79615995775458, 47.91717144943465, 62.64927250762253 
165.17501047056297, 0.8191643695704596, 22.25846430325027, 143.1019158386209, 47.94665712696799, 62.648939962227395 
164.2482687611522, 0.8828306034934756, 22.258459653360358, 142.4075542115331, 47.97915268493595, 62.64857352119248 
163.32193527842162, 0.9523404724608729, 22.25845417966984, 141.71306296058694, 48.014653945959914, 62.64817324682071 
162.39604293513082, 1.0276731441092655, 22.258447779547886, 141.01842978708697, 48.0531563466106, 62.64773920738423 
161.47062379996146, 1.1088060895794243, 22.25844034234886, 140.32364219288496, 48.09465493806659, 62.64727147716984 
160.54570903554568, 1.19571510160141, 22.258431749585704, 139.62868746360962, 48.13914438682044, 62.64677013652776 
159.62132883803758, 1.288374313752879, 22.258421875115914, 138.9335526517772, 48.18661897543059, 62.64623527192364 
158.69751237831406, 1.3867562208382667, 22.258410585339583, 138.23822455977225, 48.2370726033167, 62.64566697599382 
157.77428774488283, 1.490831700334184, 22.258397739409535, 137.54268972268804, 48.29049878759603, 62.64506534760381 
156.85168188857028, 1.6005700348437804, 22.258383189453177, 136.8469343910149, 48.34689066395857, 62.64443049190955 
155.92972056905464, 1.7159389355008086, 22.258366780805638, 136.15094451316514, 48.406240987578, 62.64376252042176 
155.00842830330382, 1.8369045662620336, 22.25834835225415, 135.45470571782198, 48.46854213405579, 62.64306155107274 
154.08782831596946, 1.9634315690250557, 22.258327736293076, 134.75820329610042, 48.533786100395325, 62.642327708285904 
153.1679424917828, 2.0954830895070207, 22.258304759389432, 134.06142218350652, 48.60196450600308, 62.64156112304768 
152.24879132999064, 2.2330208038186132, 22.2582792422585, 133.36434694168153, 48.67306859371336, 62.64076193298169 
151.33039390086242, 2.3760049456665575, 22.25825100014911, 132.6669617399172, 48.74708923083318, 62.639930282424984 
150.41276780429317, 2.52439433411715, 22.258219843138285, 131.9692503364265, 48.82401691020367, 62.63906632250627 
149.49592913052018, 2.67814640185294, 22.25818557643482, 131.27119605935562, 48.90384175127421, 62.6381702112257 
148.5798924229638, 2.8372172238541347, 22.25814800069145, 130.57278178752006, 48.98655350118521, 62.63724211353659 
147.6646706431976, 3.001561546436404, 22.25810691232506, 129.87398993084886, 49.07214153585565, 62.63628220142822 
146.75027513804577, 3.171132816576804, 22.25806210384471, 129.1748024105198, 49.16059486107065, 62.63529065400995 
145.83671560879932, 3.34588321145989, 22.258013364186812, 128.4752006387656, 49.25190211356517, 62.63426765759632 
144.92400008253804, 3.5257636681766367, 22.257960479057264, 127.77516549833511, 49.3460515620986, 62.633213405793086 
144.01213488553802, 3.710723913509513, 22.25790323127983, 127.07467732158662, 49.44303110851587, 62.63212809958368 
143.10112461873987, 3.9007124937378688, 22.257841401150575, 126.37371586919484, 49.54282828878983, 62.6310119474162 
142.190972135248, 4.095676804399106, 22.257774766797603, 125.67226030844871, 49.64543027403983, 62.629865165290624 
141.28167851982565, 4.295563119941989, 22.257703104545875, 124.97028919111814, 49.750823871521064, 62.628687976845995 
140.37324307034666, 4.500316623210209, 22.257626189286462, 124.26778043086544, 49.85899552557922, 62.62748061344721 
139.46566328116097, 4.70988143469552, 22.25754379484982, 123.56471128017792, 49.96993131856452, 62.62624331427178 
138.55893482832553, 4.924200641501626, 22.257455694382568, 122.86105830679445, 50.08361697169942, 62.62497632639545 
137.65305155665186, 5.143216325961704, 22.257361660727245, 122.15679736960067, 50.200037845893725, 62.62367990487738 
136.74800546851498, 5.366869593854165, 22.257261466804646, 121.45190359396379, 50.31917894250057, 62.62235431284393 
135.84378671436824, 5.595100602163547, 22.257154885998098, 120.7463513464778, 50.441024904007094, 62.620999821571345 
134.94038358490565, 5.827848586335063, 22.257041692539232, 120.04011420908888, 50.56556001465268, 62.61961671056663 
134.03778250481042, 6.065051886973765, 22.25692166189479, 119.3331649525687, 50.69276820096782, 62.61820526764711 
133.1359680280284, 6.306647975941238, 22.25679457115387, 118.62547550930229, 50.82263303222636, 62.61676578901742 
132.23492283450202, 6.552573481805086, 22.25666019941511, 117.9170169453555, 50.95513772080372, 62.6152985793449 
131.33462772830194, 6.8027642145985725, 22.25651832817342, 117.20775943178585, 51.09026512243298, 62.613803951832004 
130.4350616370899, 7.057155189850267, 22.2563687417055, 116.49767221515815, 51.22799773635123, 62.61228222828654 
129.5362016128496, 7.315680651845499, 22.256211227453964, 115.786723587226, 51.36831770532745, 62.61073373918859 
128.63802283381943, 7.57827409608419, 22.25604557640922, 115.07488085373663, 51.511206815563604, 62.60915882375468 
127.74049860756358, 7.844868290901422, 22.25587158348891, 114.36211030231631, 51.65664649645983, 62.60755782999846 
126.84360037511792, 8.115395298219806, 22.25568904791418, 113.64837716939131, 51.804617820234505, 62.605931114787886 
125.94729771614811, 8.389786493404806, 22.255497773582338, 112.93364560609592, 51.95510150138975, 62.60427904389865 
125.0515583550594, 8.667972584196365, 22.255297569435562, 112.21787864311979, 52.108077896012176, 62.602601992063605 
124.15634816799827, 8.949883628692701, 22.2550882498249, 111.50103815444145, 52.26352700089878, 62.600900343018196 
123.26163119068967, 9.2354490523639, 22.254869634869316, 110.7830848198954, 52.421428452497146, 62.599174489541184 
122.3673696270538, 9.524597664075639, 22.25464155080914, 110.0639780865158, 52.58176152564884, 62.597424833491154 
121.47352385855093, 9.817257671104946, 22.254403830353578, 109.34367612859869, 52.74450513212454, 62.595651785837944 
120.5800524542037, 10.113356693132536, 22.25415631302173, 108.62213580642099, 52.90963781893875, 62.59385576668926 
119.68691218125115, 10.412821775197743, 22.253898845476677, 107.899312623553, 53.07713776643165, 62.592037205312046 
118.79405801638997, 10.715579399604675, 22.253631281852233, 107.1751606826975, 53.246982786105065, 62.59019654014855 
117.9014431575636, 11.021555496769581, 22.25335348407187, 106.44963263998588, 53.41915031819905, 62.58833421882678 
117.00901903626294, 11.33067545500177, 22.253065322159454, 105.72267965765927, 53.59361742899477, 62.58645069816531 
116.1167353303051, 11.642864129212082, 22.252766674541277, 104.99425135505885, 53.770360807829185, 62.584546444172084 
115.2245399770629, 11.958045848544657, 22.25245742833904, 104.26429575784661, 53.94935676380599, 62.582621932037284 
114.33237918712007, 12.276144422929793, 22.252137479653435, 103.53275924537466, 54.13058122218677, 62.58067764611993 
113.44019745833243, 12.597083148556992, 22.25180673383786, 102.79958649611785, 54.314009720445746, 62.57871407992802 
112.54793759028003, 12.920784812269478, 22.251465105761866, 102.06472043108016, 54.499617403970355, 62.57673173609219 
111.65554069909922, 13.247171694882574, 22.251112520064115, 101.32810215508292, 54.68737902138947, 62.574731126332935 
110.76294623268956, 13.576165573430506, 22.250748911394354, 100.58967089583778, 54.87726891951007, 62.572712771420484 
109.87009198629467, 13.907687722347282, 22.250374224644165, 99.84936394070492, 55.06926103784229, 62.57067720112826 
108.97691411846205, 14.241658913589108, 22.24998841516617, 99.10711657103172, 55.263328902691676, 62.56862495417903 
108.08334716739154, 14.577999415707572, 22.249591448981192, 98.36286199396373, 55.45944562079673, 62.566556578184 
107.18932406768877, 14.916628991883599, 22.24918330297347, 97.61653127161576, 55.657583872488665, 62.56447262957434 
106.29477616754441, 15.257466896934812, 22.248763965073238, 96.86805324748596, 55.85771590434894, 62.562373673525784 
105.39963324636696, 15.600431873309258, 22.248333434426605, 96.11735446999253, 56.05981352133929, 62.56026028387536 
104.50382353290206, 15.945442146081076, 22.24789172155256, 95.36435911300686, 56.26384807837748, 62.558133043030665 
