# MEX_intpoint_lon [deg], MEX_intpoint_lat [deg], MEX_intpoint_angle [deg], TGO_intpoint_lon [deg], TGO_intpoint_lat [deg], TGO_intpoint_angle [deg] 
-104.14394636074147, 20.468172201145112, 22.41993811626407, -155.28489999744147, 59.14247687465449, 62.528487863264395 
-105.04939197673656, 20.09531471126497, 22.420535628784023, -156.0839309905913, 58.92210895770358, 62.5306757703983 
-105.95313990959328, 19.723484358641162, 22.42112248645459, -156.87939837490174, 58.703218338868794, 62.53285809150281 
-106.85528341489216, 19.352771289544037, 22.421698523254395, -157.67141566180916, 58.48584051709851, 62.53503416567994 
-107.75591437342469, 18.983264983274292, 22.42226358606135, -158.4600927882603, 58.270010362022404, 62.53720333844141 
-108.65512326420495, 18.615054269897374, 22.422817534672294, -159.24553623760872, 58.05576213232437, 62.5393649618932 
-109.55299913888186, 18.24822734721333, 22.423360241806968, -160.02784915622962, 57.84312949311481, 62.541518394912835 
-110.44962959742195, 17.882871796925762, 22.42389159309642, -160.80713146597745, 57.632145532348886, 62.54366300331873 
-111.34510076494196, 17.519074599975003, 22.424411487056076, -161.58347997261532, 57.42284277633543, 62.54579816003254 
-112.23949726957854, 17.156922151003652, 22.424919835043248, -162.3569884703424, 57.21525320437889, 62.54792324523357 
-113.13290222129207, 16.79650027192383, 22.425416561199484, -163.127747842548, 57.009408262594974, 62.550037646506105 
-114.02539719150852, 16.437894224558192, 22.425901602377593, -163.89584615891866, 56.80533887693863, 62.55214075897868 
-114.9170621935123, 16.081188722328143, 22.426374908053745, -164.66136876902405, 56.603075465481034, 62.55423198545651 
-115.80797566351066, 15.726467940964412, 22.4268364402246, -165.42439839250594, 56.402647949971, 62.5563107365458 
-116.69821444229797, 15.373815528217447, 22.42728617328974, -166.18501520599136, 56.204085766714016, 62.558376430771226 
-117.58785375745548, 15.02331461254574, 22.42772409391953, -166.94329692685073, 56.007417876801064, 62.56042849468567 
-118.47696720602961, 14.67504781076282, 22.428150200908668, -167.6993188939173, 55.812672775717466, 62.562466362972614 
-119.36562673763932, 14.329097234624307, 22.428564505015583, -168.45315414528267, 55.619878502361004, 62.56448947854159 
-120.25390263796905, 13.985544496338635, 22.42896702878803, -169.20487349327996, 55.4290626474969, 62.566497292616 
-121.14186351261182, 13.644470712985854, 22.42935780637496, -169.9545455967637, 55.24025236167593, 62.56848926481408 
-122.029576271232, 13.305956509831095, 22.42973688332512, -170.7022370307911, 55.05347436264136, 62.570464863222796 
-122.91710611202566, 12.970082022520158, 22.43010431637255, -171.44801235380876, 54.86875494224818, 62.57242356446462 
-123.8045165064602, 12.636926898146466, 22.430460173209344, -172.19193417244256, 54.68611997291814, 62.57436485375762 
-124.69186918428359, 12.306570295180022, 22.430804532245947, -172.93406320398887, 54.50559491365223, 62.57628822496865 
-125.57922411879716, 11.97909088225044, 22.43113748235934, -173.67445833669888, 54.32720481562176, 62.578193180660016 
-126.46663951239282, 11.654566835777846, 22.431459122629523, -174.41317668794707, 54.150974327357986, 62.580079232129506 
-127.35417178236128, 11.333075836446584, 22.431769562064506, -175.15027366037071, 53.97692769955961, 62.58194589944404 
-128.24187554698184, 11.014695064518719, 22.43206891931436, -175.88580299606443, 53.8050887895364, 62.58379271146714 
-129.12980361191117, 10.699501193985546, 22.43235732237461, -176.61981682891113, 53.635481065306465, 62.58561920588006 
-130.01800695689238, 10.387570385557314, 22.432634908279372, -177.35236573512736, 53.46812760936422, 62.587424929197105 
-130.90653472281062, 10.078978278492679, 22.43290182278473, -178.08349878209896, 53.3030511221349, 62.58920943677506 
-131.79543419912682, 9.773799981271704, 22.433158220042657, -178.813263575579, 53.14027392513128, 62.5909722928167 
-132.68475081172448, 9.472110061117364, 22.43340426226607, -179.54170630531848, 52.979817963827266, 62.592713070369186 
-133.5745281112097, 9.173982532373103, 22.433640119385295, 179.73112821080286, 52.82170481026273, 62.59443135131678 
-134.46480776170793, 8.879490843745314, 22.433865968696566, 179.0051964840813, 52.66595566539316, 62.59612672636831 
-135.35562953020522, 8.588707864421972, 22.434081994502918, 178.28045631366686, 52.512591361197174, 62.59779879503989 
-136.24703127648536, 8.301705869080482, 22.434288387747962, 177.55686674655374, 52.36163236255454, 62.59944716563246 
-137.13904894371672, 8.018556521800093, 22.43448534564314, 176.83438803882663, 52.213098768906995, 62.601071455205 
-138.0317165497475, 7.739330858896244, 22.434673071288735, 176.11298161810714, 52.067010315713205, 62.602671289542855 
-138.9250661791694, 7.464099270696363, 22.434851773289445, 175.39261004714692, 51.92338637570928, 62.60424630312221 
-139.81912797621254, 7.19293148227921, 22.435021665364673, 174.67323698851715, 51.78224595998555, 62.605796139070065 
-140.7139301385383, 6.925896533201715, 22.435182965954404, 173.95482717034466, 51.64360771889021, 62.6073204491205 
-141.60949891199624, 6.6630627562400555, 22.435335897820874, 173.23734635304788, 51.50748994276944, 62.60881889356733 
-142.50585858641537, 6.404497755173822, 22.435480687646862, 172.52076129702763, 51.37391056255416, 62.61029114121292 
-143.40303149250033, 6.150268381644604, 22.435617565630814, 171.80503973126895, 51.242887150202385, 62.61173686931412 
-144.30103799990388, 5.900440711122886, 22.435746765079635, 171.09015032281255, 51.114436919006266, 62.613155763524624 
-145.19989651654907, 5.655080018019503, 22.435868521999478, 170.37606264705624, 50.98857672377268, 62.614547517834986 
-146.09962348927317, 5.414250749980473, 22.435983074685158, 169.66274715884734, 50.865323060885416, 62.61591183450945 
-147.00023340586765, 5.1780165014063115, 22.436090663308757, 168.95017516432975, 50.74469206825742, 62.617248424020524 
-147.9017387985857, 4.946439986239804, 22.436191529507838, 168.2383187935107, 50.62669952518065, 62.6185570049813 
-148.80415024919077, 4.719583010068164, 22.436285915974, 167.52715097351228, 50.51136085208125, 62.61983730407577 
-149.7074763956157, 4.497506441588442, 22.436374066042156, 166.81664540247675, 50.39869111018727, 62.62108905598703 
-150.61172394030382, 4.280270183487013, 22.43645622328112, 166.1067765240931, 50.288705001116114, 62.62231200332425 
-151.51689766029784, 4.067933142786648, 22.43653263108611, 165.39751950271625, 50.181416866388375, 62.623505896547705 
-152.42300041914345, 3.8605532007167502, 22.436603532273615, 164.6888501990493, 50.076840686874846, 62.62467049389321 
-153.33003318067, 3.658187182164617, 22.436669168679245, 163.98074514636187, 49.9749900821829, 62.625805561295 
-154.2379950247075, 3.460890824767774, 22.436729780758938, 163.27318152721838, 49.87587830998868, 62.626910872307924 
-155.1468831647972, 3.2687187477092903, 22.436785607194306, 162.56613715069045, 49.779518265320675, 62.62798620802944 
-156.05669296794724, 3.08172442028006, 22.43683688450239, 161.8595904300298, 49.68592247980084, 62.629031357020615 
-156.967417976482, 2.899960130273727, 22.436883846650492, 161.1535203607781, 49.59510312084861, 62.630046115227415 
-157.87904993202872, 2.723476952281564, 22.436926724676542, 160.44790649929166, 49.507071990853206, 62.63103028590166 
-158.7915788016792, 2.552324715956221, 22.436965746315472, 159.74272894165975, 49.421840526319485, 62.63198367952247 
-159.7049928063608, 2.386551974314364, 22.43700113563218, 159.0379683029957, 49.339419796992246, 62.632906113717766 
-160.61927845144317, 2.22620597214961, 22.43703311266147, 158.33360569708142, 49.25982050496404, 62.63379741318676 
-161.53442055960244, 2.071332614628018, 22.437061893055493, 157.62962271634652, 49.18305298377076, 62.63465740962289 
-162.45040230595785, 1.9219764361391087, 22.43708768773918, 156.92600141216397, 49.10912719747988, 62.63548594163776 
-163.36720525548938, 1.7781805694759971, 22.43711070257407, 156.2227242754445, 49.03805273977549, 62.63628285468641 
-164.28480940273766, 1.639986715418525, 22.437131138031006, 155.51977421751386, 48.96983883304411, 62.63704800099366 
-165.20319321378074, 1.5074351127934291, 22.437149188872088, 154.81713455125615, 48.90449432746564, 62.637781239482 
-166.12233367047472, 1.3805645090852832, 22.437165043842455, 154.1147889725085, 48.84202770011283, 62.638482435701235 
-167.04220631693838, 1.2594121316717635, 22.43717888537206, 153.4127215416917, 48.78244705406323, 62.639151461759745 
-167.96278530825379, 1.144013659755958, 22.437190889288058, 152.710916665663, 48.72576011752701, 62.639788196257776 
-168.88404346134715, 1.0344031970677177, 22.43720122453805, 152.00935907977745, 48.67197424299386, 62.64039252422296 
-169.8059523080072, 0.9306132454046852, 22.437210052924655, 151.30803383014413, 48.62109640640238, 62.64096433704781 
-170.7284821499904, 0.8326746790824491, 22.43721752885161, 150.6069262560649, 48.5731332063347, 62.64150353242998 
-171.6516021161543, 0.7406167203613697, 22.43722379908193, 149.90602197264352, 48.52809086323942, 62.6420100143146 
-172.5752802215528, 0.6544669159158197, 22.437229002508282, 149.20530685355314, 48.48597521868535, 62.64248369283967 
-173.499483428421, 0.5742511144093687, 22.437233269935977, 148.5047670139506, 48.44679173464871, 62.64292448428391 
-174.4241777089677, 0.4999934452368798, 22.437236723878822, 147.80438879352687, 48.41054549283625, 62.64333231101765 
-175.34932810988886, 0.43171629849198095, 22.437239478368106, 147.10415873968222, 48.37724119404622, 62.64370710145671 
-176.27489881850678, 0.3694403062151602, 22.437241638775046, 146.40406359081712, 48.34688315756963, 62.644048790019326 
-177.20085323043503, 0.3131843249748547, 22.437243301646745, 145.70409025972668, 48.31947532063333, 62.64435731708616 
-178.1271540186609, 0.2629654198302367, 22.437244554556184, 145.0042258170908, 48.29502123788709, 62.64463262896371 
-179.05376320393313, 0.21879884972104768, 22.437245475966048, 144.3044574750493, 48.27352408093581, 62.64487467785117 
-179.98064222633695, 0.18069805432577213, 22.437246135107014, 143.60477257085304, 48.254986637918655, 62.645083421810206 
179.0922479820676, 0.1486746424256434, 22.437246591870235, 142.90515855058175, 48.239411313136344, 62.645258824738896 
178.164946923671, 0.12273838180783041, 22.437246896714484, 142.2056029529197, 48.22680012672748, 62.64540085634864 
177.237494460935, 0.10289719073666861, 22.437247090587945, 141.5060933929803, 48.21715471439533, 62.64550949214501 
176.3099307413435, 0.08915713101762045, 22.437247204864715, 140.80661754617103, 48.210476327185305, 62.64558471341196 
175.38229612182167, 0.08152240267396076, 22.43724726129623, 140.10716313208988, 48.20676583131447, 62.64562650719985 
174.45463109276326, 0.0799953402515501, 22.43724727197753, 139.4077178984451, 48.20602370805297, 62.6456348663172 
173.52697620180766, 0.08457641076244447, 22.43724723932857, 138.7082696049896, 48.20825005365815, 62.64560978932595 
172.59937197750935, 0.09526421327335723, 22.43724715609045, 138.0088060074615, 48.213444579361315, 62.64555128054048 
171.67185885304332, 0.11205548014005098, 22.437247005336648, 137.30931484152282, 48.221606611407346, 62.645459350030606 
170.7444770900896, 0.1349450798842044, 22.437246760499246, 136.60978380668772, 48.23273509114691, 62.64533401362787 
169.8172667030386, 0.16392602170427356, 22.437246385410113, 135.9102005502312, 48.24682857518111, 62.64517529293577 
168.89026738365888, 0.19898946160744574, 22.437245834356894, 135.21055265107142, 48.263885235558035, 62.644983215343636 
167.9635184263659, 0.24012471014478476, 22.437245052153944, 134.5108276036151, 48.28390286002069, 62.644757814044105 
167.03705865422842, 0.28731924172739465, 22.437243974227812, 133.811012801559, 48.3068788523056, 62.64449912805422 
166.11092634584574, 0.3405587054967383, 22.437242526717498, 133.11109552163768, 48.332810232491106, 62.64420720224001 
165.18515916322534, 0.39982693771791866, 22.437240626589038, 132.41106290730914, 48.3616936373943, 62.6438820873447 
164.25979408078635, 0.4651059756606548, 22.437238181764496, 131.71090195236914, 48.39352532101557, 62.64352384002033 
163.33486731561018, 0.5363760729283695, 22.437235091265094, 131.01059948448494, 48.42830115502906, 62.64313252286263 
162.41041425905283, 0.6136157161921502, 22.43723124536822, 130.31014214863876, 48.466016629317906, 62.6427082044495 
161.48646940983002, 0.6968016432824585, 22.437226525778268, 129.60951639047198, 48.50666685255219, 62.642250959382174 
160.56306630867863, 0.7859088625880912, 22.437220805810995, 128.9087084395191, 48.55024655280816, 62.64176086833017 
159.64023747469213, 0.8809106737085116, 22.43721395059107, 128.20770429232206, 48.596750078226364, 62.641238018078866 
158.71801434342163, 0.9817786893026555, 22.437205817262736, 127.50648969541392, 48.64617139770688, 62.64068250157996 
157.79642720682608, 1.0884828580745514, 22.437196255213145, 126.80505012816126, 48.698504101639074, 62.64009441800507 
156.8755051551492, 1.2009914888333275, 22.437185106308124, 126.10337078545376, 48.753741402663636, 62.63947387280181 
155.95527602079252, 1.3192712755630742, 22.437172205140104, 125.40143656022971, 48.811876136464086, 62.63882097775237 
155.0357663242468, 1.44328732343583, 22.437157379287804, 124.69923202582515, 48.87290076258521, 62.638135851034974 
154.1170012221363, 1.5730031756991396, 22.437140449587385, 123.9967414181342, 48.93680736527526, 62.63741861728703 
153.19900445742343, 1.7083808413681594, 22.437121230414682, 123.29394861756775, 49.00358765434897, 62.636669407671 
152.2817983118119, 1.8493808236509053, 22.437099529978177, 122.59083713079694, 49.07323296606817, 62.63588835994202 
151.36540356038148, 1.9959621490343058, 22.437075150622217, 121.8873900722678, 49.145734264036484, 62.63507561851756 
150.44983942847682, 2.1480823969578484, 22.43704788914029, 121.18359014547192, 49.22108214010456, 62.6342313345486 
149.53512355086824, 2.3056977300011865, 22.437017537097688, 120.4794196239588, 49.299266815282195, 62.633355665992454 
148.6212719331925, 2.468762924511758, 22.436983881163297, 119.77486033207363, 49.38027814065345, 62.63244877768725 
147.70829891567655, 2.637231401598409, 22.436946703450065, 119.06989362540469, 49.46410559829051, 62.631510841427065 
146.79621713913838, 2.811055258417304, 22.43690578186358, 118.3645003709227, 49.55073830216229, 62.630542036038655 
145.8850375132539, 2.9901852996768494, 22.436860890458494, 117.65866092679494, 49.640164999033374, 62.62954254745874 
144.97476918707116, 3.1745710692888087, 22.43681179980205, 116.9523551218557, 49.7323740693485, 62.62851256881204 
144.06541952174786, 3.3641608820940165, 22.436758277344566, 116.24556223471336, 49.82735352809812, 62.62745230048982 
143.1569940654815, 3.55890185559171, 22.43670008779603, 115.53826097247442, 49.92509102565994, 62.626361950228684 
142.24949653059662, 3.758739941603178, 22.436636993508674, 114.83042944906363, 50.02557384861143, 62.62524173318954 
141.34292877274802, 3.9636199578014537, 22.43656875486463, 114.12204516311809, 50.12878892050794, 62.62409187203638 
140.437290772194, 4.173485619040629, 22.436495130668522, 113.41308497543294, 50.234722802621086, 62.62291259701487 
139.53258061708925, 4.388279568419892, 22.436415878544235, 112.7035250859349, 50.34336169463154, 62.621704146030375 
138.6287944887434, 4.607943408019368, 22.436330755335455, 111.99334101015845, 50.45469143527055, 62.62046676472532 
137.7259266487865, 4.83241772924675, 22.436239517509353, 111.28250755519987, 50.56869750290406, 62.61920070655549 
136.82396942818076, 5.061642142735686, 22.436141921562996, 110.57099879512126, 50.68536501605298, 62.61790623286557 
135.92291321801392, 5.295555307739392, 22.436037724431863, 109.8587880457771, 50.80467873384353, 62.616583612962906 
135.02274646200772, 5.534094960964659, 22.43592668389998, 109.14584783903402, 50.926623056380436, 62.615233124190155 
134.12345565067292, 5.7771979447943576, 22.43580855901104, 108.43214989635312, 51.05118202503637, 62.613855051995884 
133.22502531704018, 6.024800234848351, 22.435683110480152, 107.71766510170347, 51.17833932265044, 62.61244969000336 
132.3274380338954, 6.27683696683562, 22.43555010110544, 107.00236347377297, 51.30807827362801, 62.61101734007725 
131.4306744124468, 6.533242462652431, 22.43540929617912, 106.286214137443, 51.4403818439346, 62.60955831238766 
130.5347131023511, 6.793950255684283, 22.435260463897492, 105.56918529448967, 51.575232640975365, 62.608072925471994 
129.63953079302544, 7.0588931152713466, 22.435103375769152, 104.85124419347545, 51.712612913352494, 62.60656150629361 
128.7451022161717, 7.328003070300155, 22.43493780702119, 104.13235709879065, 51.852504550491545, 62.60502439029783 
127.85140014944207, 7.6012114318862745, 22.434763537002464, 103.41248925880522, 51.99488908212807, 62.60346192146462 
126.95839542117363, 7.878448815115447, 22.43458034958376, 102.6916048730876, 52.13974767764527, 62.60187445235766 
126.06605691612178, 8.159645159813136, 22.434388033554004, 101.9696670586465, 52.287061145253496, 62.60026234417018 
125.17435158212504, 8.444729750314542, 22.434186383012317, 101.24663781514975, 52.43680993100119, 62.59862596676665 
124.2832444376336, 8.733631234209994, 22.433975197755124, 100.52247798907179, 52.58897411760765, 62.596965698720695 
123.39269858003759, 9.026277640042379, 22.433754283657887, 99.79714723672011, 52.743533423106555, 62.59528192734875 
122.50267519473357, 9.322596393936156, 22.43352345305109, 99.07060398608813, 52.900467199289636, 62.59357504873916 
121.6131335648694, 9.622514335139202, 22.43328252508977, 98.34280539748092, 53.059754429938664, 62.59184546777698 
120.72403108171179, 9.925957730461409, 22.433031326116186, 97.61370732285644, 53.22137372883422, 62.59009359816374 
119.8353232555834, 10.232852287595554, 22.4327696900153, 96.88326426382453, 53.38530333752878, 62.58831986243261 
118.94696372732027, 10.543123167308623, 22.432497458562246, 96.15142932824165, 53.551521122871065, 62.586524691958 
118.05890428020344, 10.856694994493287, 22.432214481761658, 95.41815418533861, 53.72000457426865, 62.58470852696019 
117.17109485232363, 11.17349186807137, 22.431920618178264, 94.68338901931467, 53.89073080067457, 62.58287181650452 
116.28348354934054, 11.493437369743257, 22.43161573525826, 93.94708248132967, 54.063676527283576, 62.5810150184947 
115.39601665760425, 11.816454571578552, 22.43129970964114, 93.20918163982289, 54.238818091922944, 62.579138599660624 
114.50863865760921, 12.142466042445653, 22.430972427461423, 92.46963192908436, 54.41613144112188, 62.57724303554017 
113.62129223775742, 12.471393853279073, 22.430633784640044, 91.7283770960022, 54.59559212584315, 62.57532881045472 
112.73391830841106, 12.803159581185584, 22.43028368716485, 90.98535914490583, 54.777175296859845, 62.57339641747886 
111.84645601622115, 13.137684312391356, 22.4299220513599, 90.24051828042276, 54.9608556997592, 62.57144635840342 
110.95884275872262, 13.474888644034355, 22.429548804143213, 89.49379284826321, 55.14660766955458, 62.56947914369217 
110.07101419919321, 13.814692684807426, 22.429163883272516, 88.74511927384376, 55.334405124886324, 62.56749529243195 
109.18290428177808, 14.157016054459243, 22.428767237578807, 87.9944319986589, 55.5242215617907, 62.565495332275916 
108.2944452468879, 14.501777882161797, 22.428358827187235, 87.2416634143046, 55.716030047015515, 62.563479799380325 
107.40556764688498, 14.848896803754421, 22.42793862372509, 86.48674379405726, 55.90980321086001, 62.56144923833398 
106.5162003620768, 15.198290957876031, 22.42750661051662, 85.72960122190591, 56.10551323951543, 62.559404202080984 
105.6262706170442, 15.549877980998518, 22.42706278276432, 84.97016151893433, 56.30313186688165, 62.55734525183628 
104.73570399733597, 15.903575001375932, 22.426607147716453, 84.20834816694527, 56.50263036583406, 62.55527295699403 
