# MEX_intpoint_lon [deg], MEX_intpoint_lat [deg], MEX_intpoint_angle [deg], TGO_intpoint_lon [deg], TGO_intpoint_lat [deg], TGO_intpoint_angle [deg] 
-104.42035027014413, 20.531966007559955, 22.58572200775478, -165.25810254595038, 59.12132118081393, 62.52960843525391 
-105.32072639186434, 20.150508721400783, 22.58633975269034, -166.05589963361535, 58.90029208284852, 62.53180390309888 
-106.2193975631372, 19.770126577535702, 22.586946267826285, -166.8501428030546, 58.68074773468886, 62.53399374654984 
-107.11646062208978, 19.39091065401449, 22.587541381848954, -167.64094560533886, 58.462723605494844, 62.53617730246286 
-108.01201092283655, 19.012951353239004, 22.588124937041215, -168.42841800293442, 58.24625453674439, 62.53835391414909 
-108.9061423113671, 18.63633842174642, 22.588696789302073, -169.21266649169738, 58.03137476059864, 62.540522931559934 
-109.79894710274169, 18.2611609691333, 22.589256808149788, -169.99379421850537, 57.81811791726231, 62.542683711464484 
-110.6905160594573, 17.88750748608554, 22.58980487670866, -170.77190109465724, 57.60651707138649, 62.54483561761979 
-111.5809383708588, 17.515465861481008, 22.590340891679443, -171.54708390517402, 57.396604727558675, 62.546978020933224 
-112.47030163347755, 17.14512339853436, 22.590864763293627, -172.31943641413406, 57.18841284492323, 62.54911029961748 
-113.35869183218998, 16.776566829954785, 22.591376415251503, -173.0890494661739, 56.98197285097277, 62.551231839337945 
-114.24619332209745, 16.409882332090127, 22.591875784644284, -173.85601108428637, 56.77731565454969, 62.553342033352386 
-115.13288881103738, 16.045155538031942, 22.59236282186036, -174.62040656404608, 56.5744716580948, 62.55544028264347 
-116.01885934264419, 15.682471549657981, 22.59283749047581, -175.38231856438918, 56.37347076917853, 62.55752599604334 
-116.90418427988668, 15.321914948590399, 22.593299767129434, -176.14182719507306, 56.17434241134837, 62.55959859035094 
-117.78894128901722, 14.963569806049009, 22.59374964138248, -176.8990101009393, 55.97711553432461, 62.5616574904419 
-118.67320632387408, 14.607519691581139, 22.594187115563184, -177.65394254309936, 55.78181862357523, 62.56370212937103 
-119.55705361048871, 14.253847680650237, 22.5946122045965, -178.40669747716106, 55.58847970929879, 62.565731948467466 
-120.44055563195394, 13.902636361067618, 22.595024935819204, -179.15734562860908, 55.39712637484354, 62.56774639742246 
-121.32378311351894, 13.553967838252474, 22.595425348780584, -179.90595556545168, 55.20778576458904, 62.569744934370306 
-122.20680500788154, 13.207923739307233, 22.59581349502915, 179.34740623175972, 55.02048459131571, 62.571727025961735 
-123.08968848065717, 12.864585215896133, 22.596189437885467, 178.60267530243198, 54.83524914308658, 62.57369214743071 
-123.97249889600859, 12.524032945916966, 22.596553252201673, 177.8597891408528, 54.652105289664206, 62.57563978265402 
-124.85529980242825, 12.186347133956676, 22.596905024107745, 177.11868713343517, 54.47107848848491, 62.57756942420422 
-125.73815291867051, 11.851607510523444, 22.59724485074513, 176.37931049818914, 54.29219379021128, 62.57948057339585 
-126.6211181198368, 11.519893330049134, 22.5975728399879, 175.64160222632933, 54.1154758438832, 62.58137274032501 
-127.50425342362414, 11.191283367657405, 22.597889110151907, 174.90550702592932, 53.940948901686546, 62.58324544390259 
-128.38761497675068, 10.865855914694611, 22.59819378969239, 174.17097126753788, 53.768636823358136, 62.58509821188123 
-129.2712570415798, 10.543688773021822, 22.598487016890285, 173.43794293167406, 53.59856308024429, 62.586930580875695 
-130.15523198296728, 10.224859248068425, 22.598768939527794, 172.70637155812227, 53.43075075903012, 62.588742096377906 
-131.03959025536412, 9.909444140648867, 22.599039714553655, 171.9762081969506, 53.2652225651556, 62.59053231276542 
-131.9243803902084, 9.59751973754657, 22.599299507738433, 171.2474053611787, 53.10200082593393, 62.59230079330467 
-132.8096489836489, 9.289161800870167, 22.59954849332042, 170.51991698102435, 52.94110749338701, 62.5940471101482 
-133.69544068464387, 8.984445556189682, 22.59978685364264, 169.79369835966082, 52.78256414681237, 62.59577084432691 
-134.58179818348464, 8.68344567946193, 22.600014778781254, 169.06870613041892, 52.62639199509514, 62.59747158573678 
-135.46876220079767, 8.386236282756455, 22.600232466166073, 168.34489821537102, 52.47261187877823, 62.59914893312067 
-136.35637147708204, 8.092890898795586, 22.600440120193575, 167.62223378523657, 52.32124427190336, 62.60080249404509 
-137.24466276284264, 7.803482464324236, 22.600637951832987, 166.90067322055043, 52.172309283635045, 62.60243188487262 
-138.13367080938417, 7.518083302327397, 22.600826178225837, 166.1801780740388, 52.0258266596793, 62.60403673072931 
-139.0234283603324, 7.236765103115326, 22.601005022279722, 165.460711034148, 51.881815783508074, 62.6056166654682 
-139.91396614395302, 6.95959890429937, 22.60117471225662, 164.74223588967587, 51.74029567740053, 62.60717133162847 
-140.80531286634084, 6.686655069683021, 22.601335481356386, 164.02471749545475, 51.60128500331136, 62.608700380390836 
-141.69749520555413, 6.4180032670959655, 22.601487567296004, 163.30812173904005, 51.46480206357628, 62.61020347152898 
-142.59053780677047, 6.1537124452010685, 22.601631211885095, 162.59241550835756, 51.330864801464315, 62.611680273357734 
-143.48446327854302, 5.893850809306792, 22.60176666059824, 161.87756666026655, 51.19949080158632, 62.61313046267769 
-144.3792921902368, 5.638485796220345, 22.601894162144763, 161.1635439899961, 51.07069729016866, 62.61455372471691 
-145.27504307072485, 5.3876840481793575, 22.60201396803643, 160.45031720141472, 50.94450113520069, 62.615949753069586 
-146.17173240842598, 5.141511385902611, 22.602126332153727, 159.73785687809496, 50.8209188464647, 62.617318249632035 
-147.0693746527653, 4.9000327808028805, 22.60223151031123, 159.02613445513472, 50.699966575456, 62.61865892453631 
-147.9679822171374, 4.663312326407876, 22.602329759822634, 158.3151221917014, 50.5816601152015, 62.61997149608133 
-148.86756548345423, 4.4314132090376095, 22.602421339066115, 157.60479314426345, 50.46601489998383, 62.62125569066215 
-149.76813280835495, 4.2043976777894345, 22.60250650705043, 156.89512114047744, 50.35304600497881, 62.62251124269729 
-150.66969053115696, 3.9823270138844173, 22.602585522982476, 156.1860807536987, 50.24276814581295, 62.623737894554466 
-151.57224298362263, 3.7652614994313263, 22.602658645836854, 155.4776472780863, 50.135195678048106, 62.62493539647468 
-152.47579250161624, 3.553260385667026, 22.60272613392785, 154.76979670427272, 50.03034259659974, 62.626103506495554 
-153.38033943872068, 3.3463818607344846, 22.602788244484668, 154.0625056955713, 49.92822253509519, 62.62724199037319 
-154.28588218188187, 3.144683017061869, 22.602845233230198, 153.35575156469446, 49.82884876517833, 62.62835062150345 
-155.19241716914414, 2.9482198184085022, 22.602897353964142, 152.6495122509577, 49.732234195766225, 62.62942918084263 
-156.09993890953643, 2.7570470666455913, 22.602944858150746, 151.9437662979449, 49.63839137226399, 62.63047745682779 
-157.00844000516378, 2.571218368341513, 22.60298799451199, 151.23849283161147, 49.547332475743005, 62.6314952452967 
-157.91791117555422, 2.390786101223363, 22.603027008626547, 150.53367153880336, 49.45906932208826, 62.632482349408015 
-158.82834128430594, 2.2158013805881254, 22.603062142535148, 149.82928264617016, 49.373613361119794, 62.63343857956164 
-159.7397173680726, 2.0463140257383063, 22.603093634352877, 149.12530689945172, 49.29097567569322, 62.634363753319384 
-160.65202466792047, 1.8823725265181817, 22.603121717888808, 148.4217255431188, 49.21116698078445, 62.63525769532623 
-161.56524666308243, 1.7240240100279351, 22.603146622273652, 147.71852030034876, 49.13419762256289, 62.63612023723261 
-162.47936510712827, 1.5713142075938529, 22.60316857159572, 147.01567335331796, 49.06007757745802, 62.636951217617316 
-163.39436006656373, 1.4242874220733743, 22.60318778454588, 146.31316732379355, 48.98881645122326, 62.6377504819118 
-164.31020996186209, 1.2829864955741854, 22.603204474071763, 145.61098525400823, 48.920423478001645, 62.6385178823257 
-165.2268916109252, 1.1474527776668808, 22.603218847041898, 144.9091105878013, 48.85490751939702, 62.639253277774 
-166.14438027496323, 1.0177260941704385, 22.60323110392003, 144.20752715201118, 48.79227706355476, 62.639956533805595 
-167.06264970677307, 0.8938447165894511, 22.603241438450183, 143.50621913810426, 48.73254022425551, 62.64062752253393 
-167.9816722013889, 0.7758453322815154, 22.60325003735279, 142.8051710840258, 48.67570474002561, 62.64126612256951 
-168.9014186490678, 0.6637630154321974, 22.603257080032417, 142.10436785625942, 48.62177797326744, 62.64187221895449 
-169.82185859056702, 0.5576311989137431, 22.603262738297314, 141.4037946320816, 48.57076690941284, 62.642445703099824 
-170.74296027465968, 0.45748164710242395, 22.603267176091258, 140.70343688199887, 48.52267815610267, 62.64298647272434 
-171.66469071782828, 0.36334442972736647, 22.603270549238076, 140.0032803523551, 48.47751794239544, 62.64349443179686 
-172.58701576606586, 0.2752478968218832, 22.60327300519909, 139.30331104809724, 48.43529211800742, 62.64396949048066 
-173.50990015870812, 0.19321865484590967, 22.60327468284387, 138.60351521568785, 48.39600615258728, 62.64441156508098 
-174.43330759421016, 0.11728154404550518, 22.6032757122346, 137.90387932615383, 48.35966513502708, 62.64482057799515 
-175.35720079777508, 0.047459617112517255, 22.603276214424298, 137.20439005825975, 48.326273772812165, 62.64519645766617 
-176.28154159073335, -0.01622588079564725, 22.603276301269243, 136.5050342817966, 48.29583639141219, 62.645539138538766 
-177.20629096156526, -0.07375553061959379, 22.603276075255742, 135.80579904097453, 48.26835693371459, 62.645848561019456 
-178.13140913845126, -0.12511175649200804, 22.60327562934158, 135.10667153791087, 48.243838959503016, 62.6461246714392 
-179.05685566322956, -0.17027884131323673, 22.60327504681228, 134.40763911620314, 48.22228564498174, 62.64636742201989 
-179.98258946663367, -0.20924294076345504, 22.603274401152408, 133.70868924457798, 48.20369978234775, 62.64657677084407 
179.09143105532246, -0.24199209571088923, 22.603273755932115, 133.00980950060688, 48.18808377941189, 62.64675268182836 
178.16524796394916, -0.2685162429799705, 22.603273164708998, 132.3109875544795, 48.17543965926985, 62.646895124700016 
177.2389036996176, -0.28880722444799645, 22.60327267094546, 131.6122111528261, 48.16576906002445, 62.64700407497784 
176.31244100277308, -0.3028587944436051, 22.603272307941683, 130.9134681025798, 48.15907323455957, 62.64707951395606 
175.38590283437426, -0.31066662542541823, 22.603272098784267, 130.2147462548711, 48.15535305036679, 62.647121428692195 
174.45933229590912, -0.31222831192401357, 22.60327205631066, 129.51603348894488, 48.15460898942496, 62.64712981199878 
173.5327725491409, -0.30754337273573484, 22.60327218308932, 128.81731769609246, 48.15684114813319, 62.64710466243853 
172.6062667357378, -0.2966132513617741, 22.603272471415817, 128.11858676358986, 48.16204923729748, 62.647045984323476 
171.6798578969416, -0.27944131469121564, 22.603272903324665, 127.41982855863394, 48.1702325821709, 62.6469537877178 
170.75358889342942, -0.2560328499320637, 22.60327345061704, 126.72103091226815, 48.181390122547334, 62.64682808844428 
169.82750232552223, -0.22639505979910876, 22.603274074904245, 126.02218160328921, 48.19552041290848, 62.646668908094725 
168.90164045389238, -0.1905370559730111, 22.603274727666935, 125.32326834212652, 48.21262162262355, 62.64647627404382 
167.97604512092013, -0.14846985084966732, 22.603275350329923, 124.62427875468573, 48.232691536201365, 62.64625021946699 
167.05075767284626, -0.10020634760419965, 22.60327587435263, 123.92520036614765, 48.25572755359372, 62.64599078336156 
166.12581888286445, -0.04576132859850977, 22.603276221334852, 123.22602058471384, 48.28172669054955, 62.64569801057175 
165.20126887529312, 0.014848557833668964, 22.603276303137932, 122.52672668529014, 48.31068557901838, 62.64537195181713 
164.27714705096164, 0.081604812186042, 22.60327602202091, 121.82730579309877, 48.34260046760234, 62.64501266372453 
163.35349201394067, 0.15448710012039685, 22.603275270791755, 121.12774486721004, 48.37746722205479, 62.64462020886351 
162.4303414997411, 0.23347327030184248, 22.603273932973266, 120.42803068398386, 48.415281325824786, 62.64419465578492 
161.50773230509927, 0.3185393736775289, 22.603271882983496, 119.72814982041186, 48.45603788064482, 62.643736079063004 
160.58570021945997, 0.40965968414420306, 22.603268986330477, 119.02808863734964, 48.499731607160825, 62.64324455934041 
159.6642799582614, 0.5068067205463542, 22.603265099820945, 118.32783326262916, 48.54635684560187, 62.6427201833765 
158.7435050981198, 0.6099512699432873, 22.603260071782845, 117.62736957404064, 48.59590755648767, 62.64216304409852 
157.82340801400258, 0.7190624120806928, 22.60325374230122, 116.92668318217318, 48.648377321371534, 62.64157324065543 
156.90401981847154, 0.8341075449992471, 22.60324594346733, 116.22575941310275, 48.70375934361631, 62.64095087847502 
155.98537030307048, 0.9550524117105657, 22.60323649964048, 115.52458329091587, 48.762046449200625, 62.64029606932296 
155.06748788192132, 1.081861127868403, 22.60322522772235, 114.82313952005705, 48.823231087552806, 62.63960893136489 
154.15039953758674, 1.214496210361262, 22.60321193744346, 114.12141246748743, 48.88730533240932, 62.63888958923056 
153.234130769247, 1.3529186067508148, 22.60319643166122, 113.41938614464158, 48.95426088269482, 62.63813817408017 
152.3187055432315, 1.4970877254793584, 22.603178506669472, 112.71704418916917, 49.02408906342053, 62.63735482367305 
151.40414624593686, 1.646961466768266, 22.603157952518746, 112.01436984644751, 49.09678082659743, 62.63653968243783 
150.49047363915454, 1.8024962541288532, 22.603134553347203, 111.31134595085017, 49.17232675216074, 62.6356929015448 
149.57770681782367, 1.9636470664064074, 22.60310808772144, 110.6079549067569, 49.25071704890203, 62.634814638979385 
148.66586317021577, 2.130367470278046, 22.603078328986975, 109.90417866928884, 49.33194155540489, 62.633905059617454 
147.75495834055118, 2.3026096531249642, 22.60304504562789, 109.19999872475287, 49.415989740980315, 62.63296433530163 
146.84500619403886, 2.480324456200097, 22.60300800163505, 108.49539607077791, 49.50285070659729, 62.63199264491872 
145.9360187843236, 2.663461408012654, 22.60296695688254, 107.79035119612524, 49.592513185804464, 62.63099017447796 
145.02800632331852, 2.8519687578517408, 22.602921667511733, 107.08484406015465, 49.68496554563808, 62.629957117190166 
144.1209771533931, 3.0457935093724267, 22.602871886322575, 106.37885407192685, 49.78019578751163, 62.62889367354713 
143.21493772188185, 3.24488145416865, 22.602817363171425, 105.67236006892213, 49.87819154808209, 62.627800051401444 
142.30989255787034, 3.449177205258866, 22.602757845375134, 104.96534029535407, 49.978940100087826, 62.626676466046455 
141.40584425121352, 3.6586242304118657, 22.602693078120552, 104.25777238005674, 50.082428353152686, 62.62552314029615 
140.50279343373174, 3.8731648852421037, 22.602622804879253, 103.5496333139223, 50.18864285455104, 62.62434030456463 
139.60073876252878, 4.0927404460054575, 22.6025467678266, 102.84089942686519, 50.297569789927735, 62.62312819694525 
138.69967690536922, 4.317291142028788, 22.60246470826482, 102.13154636428828, 50.409194983967524, 62.62188706328904 
137.79960252805049, 4.546756187708568, 22.602376367049516, 101.42154906302466, 50.52350390100751, 62.620617157282034 
136.90050828369988, 4.781073814016122, 22.602281485018914, 100.71088172672864, 50.64048164558648, 62.61931874052175 
136.0023848039252, 5.020181299449686, 22.60217980342538, 99.99951780068714, 50.760112962924765, 62.617992082592245 
135.10522069174363, 5.264015000375583, 22.602071064368687, 99.28742994602241, 50.882382239327505, 62.616637461137536 
134.2090025162128, 5.512510380703543, 22.60195501123034, 98.57459001325535, 51.00727350250485, 62.6152551619334 
133.31371480868552, 5.765602040843791, 22.60183138910844, 97.86096901519757, 51.13477042180147, 62.613845478957195 
132.41934006060745, 6.0232237458960585, 22.60169994525258, 97.1465370991383, 51.26485630832826, 62.61240871445556 
131.52585872277862, 6.285308453023334, 22.601560429498065, 96.43126351829217, 51.397514114988226, 62.6109451790095 
130.63324920599632, 6.551788337965929, 22.601412594699035, 95.71511660247072, 51.53272643638891, 62.60945519159718 
129.74148788299905, 6.822594820653908, 22.601256197159742, 94.9980637279406, 51.67047550863277, 62.60793907965379 
128.85054909163028, 7.09765858987893, 22.601090997063615, 94.28007128642822, 51.8107432089773, 62.60639717912836 
127.96040513914235, 7.376909626988727, 22.600916758899405, 93.56110465323044, 51.95351105535568, 62.60482983453743 
127.07102630756089, 7.660277228570526, 22.60073325188384, 92.84112815438807, 52.09876020574911, 62.60323739901523 
126.18238086003271, 7.947690028092089, 22.600540250380366, 92.12010503287738, 52.246471457401135, 62.60162023436028 
125.29443504808093, 8.239076016471547, 22.60033753431329, 91.39799741377344, 52.39662524586416, 62.59997871107823 
124.4071531196938, 8.534362561549884, 22.600124889576794, 90.67476626833647, 52.54920164386783, 62.59831320842041 
123.5204973281758, 8.833476426442203, 22.59990210843838, 89.95037137697088, 52.70418035999895, 62.59662411441854 
122.6344279416921, 9.136343786746563, 22.59966898993607, 89.22477129100409, 52.86154073718148, 62.59491182591474 
121.74890325344113, 9.442890246591057, 22.599425340268965, 88.49792329323078, 53.02126175094556, 62.59317674858698 
120.86387959239208, 9.753040853502704, 22.599170973180524, 87.76978335716483, 53.183322007473464, 62.59141929696988 
119.97931133452931, 10.066720112083257, 22.59890571033417, 87.04030610494033, 53.347699741410054, 62.589639894470366 
119.09515091454703, 10.383851996479779, 22.59862938168063, 86.3094447637992, 53.51437281342515, 62.587838973378304 
118.2113488379445, 10.70435996163945, 22.598341825816576, 85.57715112110152, 53.68331870751391, 62.58601697487171 
117.32785369347332, 11.028166953340273, 22.598042890334057, 84.84337547779147, 53.854514528021845, 62.58417434901664 
116.44461216589498, 11.355195416991373, 22.597732432160303, 84.10806660024943, 54.02793699637947, 62.582311554761155 
115.56156904901006, 11.685367305198085, 22.597410317887327, 83.37117167045811, 54.20356244753154, 62.580429059923716 
114.67866725892601, 12.01860408408938, 22.59707642409108, 82.63263623440729, 54.38136682604531, 62.57852734117562 
113.79584784753533, 12.354826738406217, 22.596730637639496, 81.89240414865978, 54.56132568188079, 62.57660688401708 
112.91305001618062, 12.693955775351842, 22.596372855989205, 81.15041752499694, 54.74341416580633, 62.5746681827473 
112.03021112948954, 13.035911227205945, 22.596002987470424, 80.40661667306078, 54.92760702444095, 62.572711740428154 
111.14726672936656, 13.380612652706832, 22.595620951559578, 79.66094004090465, 55.11387859490519, 62.57073806884109 
110.26415054913596, 13.727979137206628, 22.595226679139405, 78.91332415336316, 55.30220279906017, 62.568747688437824 
109.38079452783508, 14.077929291606617, 22.594820112746127, 78.16370354814774, 55.49255313731481, 62.566741128283844 
108.49712882466342, 14.430381250080881, 22.594401206803333, 77.41201070957092, 55.68490268197927, 62.56471892599547 
107.61308183359978, 14.785252666597906, 22.59396992784218, 76.65817599980049, 55.87922407014227, 62.56268162766955 
106.72858019820545, 15.142460710251378, 22.593526254707804, 75.9021275875393, 56.0754894960486, 62.56062978780639 
105.84354882663871, 15.501922059412546, 22.593070178751375, 75.14379137402553, 56.273670702951975, 62.558563969225496 
104.95791090691213, 15.863552894718135, 22.59260170400781, 74.38309091624316, 56.47373897441746, 62.556484742973964 
