# MEX_intpoint_lon [deg], MEX_intpoint_lat [deg], MEX_intpoint_angle [deg], TGO_intpoint_lon [deg], TGO_intpoint_lat [deg], TGO_intpoint_angle [deg] 
-103.87902316640528, 20.405813785110233, 22.264342826588507, -146.50815057759536, 59.00001362697612, 62.53014826461664 
-104.78914312776058, 20.041146121636615, 22.264921397280744, -147.29927799698592, 58.77540034627326, 62.53238455375817 
-105.69757509150823, 19.677460935088668, 22.26548984227947, -148.0869063545902, 58.552312051223055, 62.53461500682628 
-106.60440890347928, 19.314847412828513, 22.266048000531505, -148.87114931034282, 58.33078404894443, 62.53683894855988 
-107.50973313565865, 18.953394085167982, 22.26659572324123, -149.652116864019, 58.110851028241484, 62.539055710403204 
-108.41363505678689, 18.593188841187164, 22.267132873890187, -150.4299154829654, 57.892547077891905, 62.541264630694045 
-109.31620060443115, 18.234318943874598, 22.26765932824182, -151.20464822503675, 57.67590570391014, 62.54346505484382 
-110.21751435840123, 17.87687104455137, 22.268174974331448, -151.97641485689957, 57.46095984583563, 62.54565633551015 
-111.11765951539688, 17.520931196543366, 22.26867971244159, -152.7453119678663, 57.24774189209238, 62.54783783276136 
-112.01671786477797, 17.166584868068647, 22.269173455062564, -153.51143307941837, 57.03628369446514, 62.55000891423325 
-112.9147697653595, 16.813916954308194, 22.269656126838626, -154.27486875057593, 56.826616581734434, 62.55216895527779 
-113.81189412313876, 16.46301178863117, 22.270127664499626, -155.03570667926897, 56.618771372511105, 62.55431733910427 
-114.70816836987107, 16.1139531529471, 22.270588016778362, -155.79403179986025, 56.412778387308634, 62.5564534569125 
-115.60366844241727, 15.76682428715937, 22.2710371443138, -156.54992637696898, 56.208667459890115, 62.55857670801808 
-116.49846876279238, 15.421707897696406, 22.27147501954032, -157.30347009573805, 56.006467947924364, 62.560686499970046 
-117.39264221885426, 15.07868616509824, 22.271901626562983, -158.05474014868614, 55.80620874298455, 62.562782248660916 
-118.28626014557452, 14.737840750638126, 22.272316961019435, -158.80381131927996, 55.60791827992089, 62.564863378428726 
-119.179392306844, 14.39925280196015, 22.272721029928118, -159.55075606235968, 55.411624545637025, 62.56692932215188 
-120.07210687776904, 14.063002957715794, 22.27311385152351, -160.29564458154468, 55.217355087299225, 62.56897952133615 
-120.96447042742284, 13.729171351183345, 22.273495455078265, -161.0385449037444, 55.025137020005204, 62.57101342619449 
-121.8565479020207, 13.397837612856241, 22.27386588071276, -161.77952295089318, 54.83499703393859, 62.573030495719216 
-122.7484026084963, 13.069080871987337, 22.2742251791922, -162.5186426090261, 54.646961401033764, 62.5750301977472 
-123.6400961984593, 12.74297975707812, 22.274573411711547, -163.25596579480572, 54.461055981174745, 62.57701200901776 
-124.53168865252229, 12.419612395302982, 22.274910649668684, -163.99155251960912, 54.277306227950355, 62.578975415223404 
-125.42323826499006, 12.099056410860472, 22.27523697442608, -164.7254609512778, 54.095737193987276, 62.58091991105398 
-126.31480162890867, 11.781388922245016, 22.275552477061204, -165.45774747363103, 53.9163735358815, 62.58284500023358 
-127.20643362147885, 11.466686538433802, 22.275857258106182, -166.1884667438386, 53.73923951874751, 62.5847501955511 
-128.09818738984126, 11.155025353985634, 22.276151427276947, -166.91767174774503, 53.56435902040424, 62.586635018884124 
-128.99011433724746, 10.846480943049817, 22.276435103192284, -167.64541385323534, 53.39175553521522, 62.58849900121649 
-129.8822641096348, 10.541128352284941, 22.276708413083146, -168.37174286172657, 53.22145217760052, 62.590341682649395 
-130.7746845826275, 10.239042092689077, 22.276971492492674, -169.09670705786812, 53.05347168523635, 62.59216261240678 
-131.66742184899113, 9.940296130344828, 22.277224484967288, -169.8203532575292, 52.88783642195843, 62.593961348834526 
-132.56052020657165, 9.644963876084136, 22.277467541739192, -170.54272685414983, 52.72456838038378, 62.595737459393874 
-133.4540221467543, 9.353118174079944, 22.277700821400945, -171.26387186352716, 52.56368918426555, 62.59749052064941 
-134.34796834348086, 9.064831289373501, 22.27792448957228, -171.9838309671077, 52.405220090594746, 62.599220118251644 
-135.24239764286816, 8.780174894347967, 22.278138718559745, -172.70264555385205, 52.24918199146183, 62.60092584691424 
-136.13734705347386, 8.499220054161196, 22.278343687009627, -173.42035576073636, 52.09559541569119, 62.602607310386276 
-137.03285173725794, 8.222037211152431, 22.278539579554607, -174.13700051195195, 51.94448053026069, 62.604264121419625 
-137.9289450012925, 7.948696168239781, 22.278726586454525, -174.85261755686253, 51.79585714151789, 62.60589590173195 
-138.82565829027396, 7.679266071327362, 22.278904903231965, -175.5672435067752, 51.64974469620449, 62.60750228196469 
-139.72302117989486, 7.413815390743424, 22.279074730302813, -176.28091387057967, 51.50616228229972, 62.609082901637464 
-140.6210613711347, 7.1524119017326315, 22.279236272602606, -176.9936630893077, 51.3651286296932, 62.610637409097926 
-141.51980468553015, 6.8951226640282135, 22.279389739208945, -177.70552456966257, 51.22666211069756, 62.61216546146815 
-142.4192750614881, 6.6420140005317725, 22.279535342960575, -178.4165307165664, 51.0907807404102, 62.613666724587 
-143.31949455170465, 6.393151475130888, 22.279673300073583, -179.12671296477063, 50.957502176934064, 62.615140872949574 
-144.22048332175558, 6.148599869686979, 22.279803829755277, -179.83610180957456, 50.82684372146608, 62.616587589643075 
-145.12225964992362, 5.908423160228206, 22.27992715381624, 179.4552731633076, 50.69882231826225, 62.61800656627994 
-146.0248399283281, 5.672684492384511, 22.280043496280967, 178.74738324868954, 50.57345455448786, 62.61939750292814 
-146.92823866542358, 5.441446156104133, 22.280153082997856, 178.04020059362796, 50.45075665996082, 62.62076010803884 
-147.83246848993224, 5.214769559693466, 22.280256141248717, 177.33369816987246, 50.33074450679623, 62.622094098371946 
-148.73754015627588, 4.992715203224047, 22.28035289935866, 176.62784974701535, 50.213433608959654, 62.62339919891945 
-149.6434625515702, 4.775342651353235, 22.28044358630664, 175.9226298663072, 50.098839121736496, 62.624675142826966 
-150.5502427042447, 4.562710505606712, 22.280528431337228, 175.21801381510608, 49.98697584112475, 62.625921671313534 
-151.45788579434858, 4.354876376173746, 22.28060766357425, 174.51397760192893, 49.8778582031578, 62.627138533590006 
-152.36639516560075, 4.151896853267711, 22.280681511636597, 173.81049793207598, 49.77150028316413, 62.628325486776454 
-153.27577233924063, 3.953827478106798, 22.280750203256854, 173.10755218379938, 49.667915794970355, 62.62948229581811 
-154.18601702973203, 3.760722713571504, 22.280813964903242, 172.4051183849889, 49.56711809005366, 62.63060873340114 
-155.09712716237047, 3.572635914597457, 22.280873021405284, 171.70317519034842, 49.469120156649964, 62.63170457986726 
-156.0090988928401, 3.3896192983638396, 22.280927595583826, 171.00170185903872, 49.37393461882329, 62.6327696231286 
-156.92192662876175, 3.211723914339361, 22.28097790788578, 170.3006782327621, 49.28157373550236, 62.63380365858195 
-157.83560305327129, 3.0389996142489744, 22.28102417602408, 169.6000847142663, 49.19204939948952, 62.63480648902326 
-158.7501191506597, 2.8714950220262363, 22.281066614623466, 168.8999022462456, 49.10537313644743, 62.6357779245626 
-159.66546423410503, 2.7092575038169464, 22.2811054348724, 168.20011229061808, 49.02155610386866, 62.63671778253938 
-160.58162597551754, 2.5523331381011323, 22.28114084418161, 167.50069680815895, 48.94060909003277, 62.63762588743828 
-161.49859043751633, 2.4007666860009906, 22.281173045849833, 166.80163823847062, 48.86254251295606, 62.6385020708063 
-162.4163421075483, 2.2546015618431996, 22.281202238737016, 166.10291948027137, 48.78736641933811, 62.63934617117047 
-163.33486393415558, 2.1138798040443145, 22.281228616945544, 165.40452387198403, 48.71509048350975, 62.64015803395729 
-164.25413736538954, 1.9786420463884085, 22.281252369509886, 164.70643517260854, 48.6457240063865, 62.64093751141327 
-165.17414238936448, 1.8489274897659758, 22.281273680095023, 164.00863754286195, 48.57927591443177, 62.641684462527294 
-166.09485757693693, 1.7247738744430057, 22.281292726704116, 163.31111552656955, 48.515754758633236, 62.64239875295469 
-167.01626012648907, 1.606217452928679, 22.281309681395776, 162.61385403229315, 48.4551687134967, 62.6430802549433 
-167.93832591078882, 1.4932929635095227, 22.281324710011276, 161.91683831518102, 48.39752557606039, 62.643728847261656 
-168.8610295258914, 1.3860336045170045, 22.281337971912198, 161.22005395902667, 48.34283276493353, 62.64434441512956 
-169.78434434204087, 1.2844710093942853, 22.281349619728584, 160.5234868585222, 48.29109731936222, 62.64492685015094 
-170.708242556522, 1.1886352226267063, 22.281359799118373, 159.82712320169418, 48.24232589832556, 62.645476050249385 
-171.63269524840732, 1.0985546765987315, 22.281368648537928, 159.13094945250901, 48.19652477966523, 62.645991919606466 
-172.55767243513614, 1.014256169438505, 22.28137629902434, 158.43495233363655, 48.15369985925102, 62.6464743686028 
-173.48314313085612, 0.9357648439088109, 22.281382873989674, 157.73911880935992, 48.11385665018497, 62.646923313762095 
-174.40907540645102, 0.863104167401193, 22.28138848902733, 157.04343606862074, 48.07700028204652, 62.64733867769842 
-175.33543645117226, 0.7962959130872256, 22.28139325173099, 156.34789150818884, 48.04313550018107, 62.647720389066656 
-176.26219263578548, 0.7353601422784038, 22.281397261526173, 155.65247271594635, 48.01226666503381, 62.64806838251622 
-177.18930957713744, 0.6803151880428799, 22.28140060951476, 154.95716745427563, 47.98439775153105, 62.64838259864807 
-178.1167522040427, 0.6311776401244205, 22.281403378332655, 154.26196364354158, 47.959532348510564, 62.648662983975605 
-179.04448482438517, 0.5879623312053159, 22.281405642020815, 153.56684934565865, 47.937673658202826, 62.648909490888876 
-179.97247119332334, 0.5506823245516951, 22.281407465909627, 152.87181274773317, 47.91882449576445, 62.649122077622415 
179.0993254175148, 0.5193489030757844, 22.281408906517157, 152.17684214577187, 47.902987288865155, 62.649300708226924 
178.1709421499667, 0.49397155984594593, 22.281410011460974, 151.48192592844802, 47.89016407732959, 62.64944535254483 
177.2424164885224, 0.47455799007133165, 22.281410819384025, 150.7870525609157, 47.8803565128347, 62.649555986189554 
176.31378618888888, 0.46111408458380665, 22.281411359894463, 150.09221056866423, 47.87356585866378, 62.64963259052857 
175.38508920606068, 0.4536439248357355, 22.28141165351953, 149.39738852140394, 47.86979298951774, 62.6496751526707 
174.45636362202583, 0.4521497794278102, 22.28141171167358, 148.70257501697498, 47.86903839138402, 62.649683665457054 
173.52764757323993, 0.4566321021768517, 22.281411536640405, 148.0077586652704, 47.87130216146375, 62.64965812745609 
172.59897917799984, 0.46708953172909096, 22.281411121569594, 147.31292807216576, 47.87658400815718, 62.64959854296268 
171.6703964638512, 0.48351889272005466, 22.28141045048722, 146.6180718234466, 47.8848832511074, 62.64950492200095 
170.74193729516182, 0.5059151984776986, 22.28140949832073, 145.92317846872544, 47.8961988213023, 62.64937728033142 
169.81363930099354, 0.5342716552611109, 22.281408230937913, 145.22823650534002, 47.91052926123456, 62.64921563946171 
168.88553980340365, 0.5685796680227129, 22.28140660520013, 144.5332343622245, 47.92787272511911, 62.64902002666169 
167.95767574630463, 0.6088288476775543, 22.281404569029394, 143.83816038374488, 47.94822697916742, 62.648790474981844 
167.0300836250098, 0.6550070198590542, 22.281402061489622, 143.14300281349034, 47.971589401918116, 62.64852702327629 
166.10279941658828, 0.7071002351364567, 22.28139901288154, 142.44774977801163, 47.99795698462267, 62.64822971622896 
165.17585851115012, 0.7650927806651409, 22.281395344851454, 141.75238927049762, 48.02732633168529, 62.647898604383926 
164.24929564417891, 0.8289671932370785, 22.281390970513492, 141.05690913438113, 48.059693661155926, 62.64753374417926 
163.3231448300243, 0.8987042736949081, 22.281385794585333, 140.3612970468648, 48.09505480527448, 62.647135197984646 
162.39743929666207, 0.9742831026695415, 22.28137971353713, 139.66554050235737, 48.133405211065345, 62.64670303414239 
161.4722114218254, 1.0556810575976872, 22.281372615753494, 138.969626795811, 48.17473994097993, 62.64623732701199 
160.54749267060436, 1.1428738309725448, 22.281364381708258, 138.27354300594934, 48.219053673585805, 62.645738157018194 
159.6233135346054, 1.2358354497776733, 22.281354884151895, 137.5772759783764, 48.26634070430009, 62.64520561070202 
158.6997034727568, 1.3345382960513732, 22.281343988311193, 136.88081230855553, 48.3165949461651, 62.644639780775215 
157.77669085383934, 1.4389531285261923, 22.28133155210105, 136.18413832464734, 48.36980993066382, 62.64404076617764 
156.854302900815, 1.5490491052856412, 22.281317426348096, 135.4872400701958, 48.42597880857268, 62.64340867213765 
155.9325656370199, 1.6647938073782407, 22.28130145502572, 134.79010328665038, 48.48509435084911, 62.64274361023516 
155.01150383428123, 1.7861532633268582, 22.281283475500363, 134.0927133957121, 48.5471489495508, 62.642045698467456 
154.09114096301002, 1.9130919744696937, 22.281263318788614, 133.39505548149148, 48.612134618784, 62.64131506131753 
153.17149914431528, 2.045572941067708, 22.28124080982488, 132.6971142724643, 48.68004299567737, 62.64055182982463 
152.25259910417864, 2.183557689112111, 22.28121576773913, 131.99887412321257, 48.75086534137844, 62.639756141657365 
151.3344601297197, 2.3270062977645023, 22.281188006144507, 131.30031899593638, 48.82459254206889, 62.638928141188394 
150.41710002757748, 2.475877427361481, 22.281157333434326, 130.60143244172093, 48.90121510999522, 62.638067979571375 
149.5005350844252, 2.630128347915016, 22.281123553088097, 129.90219758154504, 48.98072318451097, 62.63717581481956 
148.58478002962886, 2.78971496803953, 22.281086463986117, 129.20259708701374, 49.06310653312652, 62.63625181188575 
147.66984800005457, 2.954591864236694, 22.281045860732334, 128.5026131607993, 49.148354552562346, 62.63529614274375 
146.7557505070218, 3.124712310468865, 22.281001533984895, 127.80222751677283, 49.23645626980146, 62.634308986471105 
145.842497405394, 3.3000283079526502, 22.28095327079412, 127.10142135980799, 49.32740034313655, 62.633290529332506 
144.93009686479297, 3.4804906151044865, 22.28090085494724, 126.4001753652392, 49.42117506320727, 62.63224096486434 
144.01855534291582, 3.666048777570956, 22.280844067319684, 125.69846965795317, 49.51776835402271, 62.631160493959484 
143.10787756092955, 3.8566511582774066, 22.280782686232243, 124.99628379109414, 49.61716777396416, 62.63004932495289 
142.19806648091253, 4.0522449674296075, 22.280716487813766, 124.29359672436095, 49.7193605167632, 62.62890767370693 
141.28912328530677, 4.2527762924043975, 22.280645246368834, 123.59038680187363, 49.824333412449214, 62.627735763696926 
140.3810473583415, 4.458190127466704, 22.280568734750034, 122.88663172958609, 49.93207292826145, 62.62653382609662 
139.47383626938353, 4.6684304032517545, 22.280486724734125, 122.1823085522206, 50.042565169519456, 62.62530209986282 
138.5674857581663, 4.883440015953264, 22.28039898740191, 121.477393629698, 50.155795880446036, 62.62404083181967 
137.66198972184634, 5.103160856159736, 22.280305293521003, 120.77186261303787, 50.2717504449368, 62.622750276741954 
136.75734020383257, 5.327533837283295, 22.280205413931224, 120.06569041970003, 50.39041388726956, 62.6214306974372 
135.8535273843307, 5.556498923527285, 22.280099119931936, 119.35885120833863, 50.511770872747604, 62.620082364826715 
134.95053957254387, 5.789995157340853, 22.27998618367092, 118.65131835293855, 50.63580570826932, 62.618705558024836 
134.04836320046746, 6.027960686311067, 22.27986637853429, 117.94306441630208, 50.762502342817896, 62.61730056441656 
133.14698281821492, 6.27033278944509, 22.2797394795368, 117.23406112285333, 50.89184436786329, 62.615867679733135 
132.2463810908105, 6.517047902797419, 22.279605263712188, 116.524279330725, 51.02381501766929, 62.61440720812552 
131.34653879638321, 6.768041644399079, 22.27946351050291, 115.81368900309222, 51.15839716949767, 62.612919462235354 
130.44743482569663, 7.023248838448554, 22.27931400214889, 115.10225917871526, 51.29557334370166, 62.61140476326326 
129.54904618294842, 7.28260353872579, 22.279156524074565, 114.38995794165183, 51.4353257037002, 62.609863441034484 
128.65134798777342, 7.546039051193744, 22.278990865273965, 113.6767523900981, 51.57763605582444, 62.608295834061074 
127.75431347838608, 7.813487955753537, 22.278816818693105, 112.96260860431526, 51.72248584902773, 62.60670228960132 
126.85791401579654, 8.084882127122093, 22.2786341816093, 112.24749161359698, 51.86985617444946, 62.60508316371508 
125.9621190890377, 8.360152754803332, 22.278442756006864, 111.53136536223106, 52.01972776482373, 62.603438821315784 
125.06689632134182, 8.639230362125934, 22.27824234894871, 110.81419267440654, 52.17208099372236, 62.60176963621845 
124.17221147720537, 8.922044824323562, 22.27803277294334, 110.0959352180151, 52.326895874622465, 62.60007599118336 
123.27802847028526, 9.208525385634976, 22.277813846306714, 109.37655346729396, 52.48415205978734, 62.598358277955654 
122.38430937206975, 9.498600675404296, 22.277585393518628, 108.65600666425465, 52.643828838950185, 62.59661689730017 
121.49101442127117, 9.792198723163123, 22.277347245572972, 107.93425277884006, 52.80590513778847, 62.594852259031754 
120.59810203388973, 10.089246972679172, 22.277099240321498, 107.21124846774907, 52.970359516177545, 62.59306478204026 
119.70552881390121, 10.389672294957185, 22.276841222810653, 106.48694903186647, 53.1371701662105, 62.59125489431093 
118.81324956452373, 10.693401000180733, 22.2765730456109, 105.7613083722321, 53.306314909971704, 62.58942303293903 
117.92121730002376, 11.000358848584977, 22.276294569138326, 105.03427894448096, 53.47777119705017, 62.58756964413927 
117.02938325802336, 11.310471060252409, 22.276005661967826, 104.30581171168359, 53.65151610177883, 62.585695183249264 
116.1376969122759, 11.623662323825872, 22.275706201137588, 103.57585609551155, 53.82752632018498, 62.58380011472756 
115.2461059858815, 11.93985680413424, 22.27539607244452, 102.8443599256517, 54.005778166636496, 62.58188491214524 
114.35455646491627, 12.258978148728806, 22.27507517073011, 102.11126938738792, 54.18624757016792, 62.57995005817164 
113.46299261245656, 12.580949493329166, 22.27474340015632, 101.37652896726723, 54.368910070469504, 62.577996044553686 
112.57135698298063, 12.90569346618012, 22.274400674471334, 100.64008139676233, 54.553740813522026, 62.576023372088564 
111.6795904371385, 13.233132191321722, 22.27404691726446, 99.9018675938406, 54.74071454685877, 62.57403255059026 
110.78763215688261, 13.563187290777218, 22.27368206221019, 99.16182660234468, 54.92980561443588, 62.572024098848686 
109.89541966095932, 13.895779885664231, 22.27330605330083, 98.4198955290866, 55.12098795109073, 62.56999854458262 
109.0028888207654, 14.230830596236945, 22.27291884506744, 97.67600947855432, 55.31423507656778, 62.56795642438509 
108.10997387657902, 14.568259540868084, 22.27252040278893, 96.93010148512388, 55.50952008908952, 62.56589828366206 
107.21660745418151, 14.907986333981036, 22.272110702688707, 96.18210244266852, 55.7068156584498, 62.56382467656369 
106.32272058189051, 15.249930082944394, 22.271689732118876, 95.43194103145039, 55.906094018605415, 62.561736165908286 
105.42824270803209, 15.594009383941987, 22.271257489731614, 94.67954364217758, 56.10732695974037, 62.559633323099014 
104.53310171888485, 15.940142316833832, 22.27081398563745, 93.92483429710417, 56.310485819776666, 62.55751672803292 
