# MEX_intpoint_lon [deg], MEX_intpoint_lat [deg], MEX_intpoint_angle [deg], TGO_intpoint_lon [deg], TGO_intpoint_lat [deg], TGO_intpoint_angle [deg] 
-104.86222425249765, 20.630618124789954, 22.8574135670354, 178.53336299333503, 58.73223539665184, 62.537391432837964 
-105.75409954927377, 20.235345137881087, 22.85806456239419, 177.7570372725644, 58.49992027390735, 62.539716764861595 
-106.64426484461286, 19.841226772383497, 22.858703361536243, 176.98407615178616, 58.26921730907019, 62.54203578444868 
-107.53282271733086, 19.448355438084317, 22.859329784482266, 176.21436635318148, 58.040161394459595, 62.54434778993871 
-108.41987408043053, 19.056822859273733, 22.859943666021383, 175.44779838872458, 57.81278682837879, 62.54665208694023 
-109.30551816236783, 18.666720097879384, 22.860544855730584, 174.6842664209829, 57.587127333009384, 62.54894798852531 
-110.18985248942664, 18.278137575580935, 22.86113321797644, 173.92366812962837, 57.363216071250555, 62.55123481541562 
-111.07297286905633, 17.891165094873166, 22.861708631898875, 173.16590458342768, 57.141085662556776, 62.553511896159684 
-111.95497337403937, 17.505891859047807, 22.86227099137738, 172.4108801174852, 56.920768197824806, 62.55577856730198 
-112.83594632736573, 17.122406491066414, 22.862820204979514, 171.65850221551892, 56.702295253378324, 62.558034173543305 
-113.71598228770216, 16.740797051298212, 22.86335619589194, 170.90868139695695, 56.48569790409536, 62.56027806789266 
-114.59517003535376, 16.361151054098766, 22.863878901834106, 170.1613311086486, 56.27100673572189, 62.56250961181068 
-115.47359655862523, 15.983555483206795, 22.864388274954624, 169.41636762099233, 56.05825185641252, 62.564728175344584 
-116.35134704049916, 15.608096805937794, 22.864884281710708, 168.67370992828813, 55.84746290753668, 62.56693313725461 
-117.22850484555657, 15.234860986154974, 22.865366902730667, 167.93327965313057, 55.63866907378745, 62.569123885132214 
-118.10515150707491, 14.863933495998756, 22.865836132659833, 167.19500095466447, 55.43189909262731, 62.57129981550971 
-118.98136671424646, 14.495399326358143, 22.866291979990024, 166.45880044053303, 55.227181263104384, 62.573460333961755 
-119.85722829946893, 14.129342996067672, 22.866734466872877, 165.7246070823535, 55.02454345406997, 62.57560485519878 
-120.73281222566699, 13.76584855981575, 22.86716362891734, 164.9923521345639, 54.82401311182737, 62.57773280315189 
-121.60819257361301, 13.40499961475071, 22.867579514971485, 164.2619690564884, 54.625617267240294, 62.57984361105014 
-122.48344152922051, 13.046879305772666, 22.86798218688915, 163.53339343747734, 54.42938254232747, 62.581936721489626 
-123.35862937079342, 12.691570329500074, 22.868371719281555, 162.80656292498222, 54.235335156369054, 62.584011586494775 
-124.23382445621903, 12.33915493690149, 22.868748199254345, 162.0814171554328, 54.04350093154911, 62.58606766757206 
-125.1090932101019, 11.989714934584027, 22.869111726130388, 161.3578976877886, 53.853905298157315, 62.58810443575589 
-125.98450011084023, 11.643331684731526, 22.869462411158764, 160.63594793964222, 53.666573299371635, 62.5901213716472 
-126.860107677654, 11.30008610368678, 22.869800377210176, 159.91551312575834, 53.48152959564319, 62.59211796544459 
-127.73597645758112, 10.960058659173251, 22.870125758459483, 159.19654019893557, 53.29879846870306, 62.59409371696854 
-128.61216501246156, 10.623329366153863, 22.870438700055455, 158.4789777930848, 53.118403825210194, 62.59604813567813 
-129.48872990593836, 10.289977781325149, 22.870739357778486, 157.76277616842088, 52.94036920005855, 62.59798074068139 
-130.36572569050728, 9.960082996247406, 22.871027897686545, 157.04788715867045, 52.76471775936093, 62.59989106073852 
-131.243204894655, 9.63372362911256, 22.87130449574987, 156.3342641202016, 52.591472303125876, 62.60177863425897 
-132.12121801012867, 9.31097781515369, 22.87156933747499, 155.62186188298602, 52.420655267643816, 62.60364300929175 
-132.9998134793871, 8.9919231957016, 22.871822617518447, 154.91063670330817, 52.25228872759737, 62.60548374350996 
-133.87903768328636, 8.676636905896155, 22.872064539290747, 154.20054621813938, 52.08639439791058, 62.60730040418907 
-134.75893492905996, 8.365195561061684, 22.872295314551273, 153.49154940109887, 51.922993635350934, 62.60909256817955 
-135.6395474386558, 8.057675241758226, 22.87251516299431, 152.78360651992674, 51.76210743989746, 62.6108598218738 
-136.52091533749794, 7.754151477522322, 22.87272431182717, 152.07667909539765, 51.60375645588802, 62.61260176116798 
-137.4030766437449, 7.454699229313549, 22.872922995340552, 151.37072986160672, 51.44796097295774, 62.61431799141821 
-138.28606725811923, 7.1593928706852425, 22.873111454472077, 150.66572272756306, 51.29474092678087, 62.61600812739238 
-139.16992095438798, 6.868306167700215, 22.873289936363314, 149.96162274002742, 51.14411589962709, 62.61767179321662 
-140.05466937057534, 6.58151225761519, 22.873458693911, 149.25839604753574, 50.99610512074353, 62.61930862231795 
-140.94034200099296, 6.299083626359749, 22.873617985313018, 148.55600986555055, 50.85072746657283, 62.620918257362 
-141.82696618917487, 6.02109208483883, 22.873768073609728, 147.854432442687, 50.7080014608176, 62.622500350187124 
-142.71456712180722, 5.747608744090176, 22.873909226221265, 147.15363302796058, 50.567945274361115, 62.624054561734326 
-143.60316782374434, 5.478703989331203, 22.874041714481404, 146.4535818390074, 50.430576725053534, 62.62558056197419 
-144.49278915420396, 5.214447452932453, 22.874165813168617, 145.7542500312297, 50.295913277372854, 62.627078029829626 
-145.38344980423594, 4.954907986357927, 22.874281800034886, 145.05560966782113, 50.16397204196962, 62.62854665309634 
-146.27516629555973, 4.700153631115395, 22.87438995533301, 144.35763369062872, 50.03476977510371, 62.629986128359775 
-147.1679529808655, 4.450251588762793, 22.874490561342895, 143.6602958918098, 49.90832287798135, 62.63139616090991 
-148.06182204567398, 4.20526819001991, 22.87458390189751, 142.96357088624526, 49.784647396000715, 62.6327764646533 
-148.95678351184978, 3.9652688630374446, 22.87467026190919, 142.26743408467027, 49.663759017913364, 62.63412676202321 
-149.85284524286118, 3.730318100878648, 22.874749926896786, 141.57186166748764, 49.54567307490933, 62.63544678388783 
-150.75001295087893, 3.500479428271529, 22.874823182514323, 140.87683055922835, 49.43040453963283, 62.63673626945662 
-151.6482902058027, 3.2758153676927977, 22.874890314081956, 140.1823184036272, 49.31796802513578, 62.63799496618557 
-152.5476784463041, 3.0563874048472677, 22.87495160611952, 139.48830353928162, 49.208377783775646, 62.63922262968087 
-153.44817699296888, 2.8422559536095653, 22.87500734188357, 138.7947649758642, 49.101647706064426, 62.640419023602156 
-154.34978306361992, 2.6334803204974486, 22.87505780290841, 138.10168237085935, 48.997791319474935, 62.6415839195644 
-155.25249179089764, 2.430118668748734, 22.875103268551676, 137.409036006798, 48.89682178721043, 62.642717097040126 
-156.15629624216962, 2.2322279820763256, 22.875144015545164, 136.7168067689628, 48.798751906943835, 62.64381834326062 
-157.06118744183618, 2.0398640281781835, 22.87518031755144, 136.02497612354026, 48.703594109531885, 62.64488745311773 
-157.9671543960942, 1.8530813220811468, 22.875212444726774, 135.33352609619445, 48.61136045771009, 62.64592422906556 
-158.87418412021344, 1.6719330893997488, 22.875240663291155, 134.6424392510407, 48.52206264477369, 62.64692848102271 
-159.7822616683752, 1.4964712295926583, 22.875265235105662, 133.95169866999703, 48.43571199324977, 62.6479000262753 
-160.6913701661148, 1.3267462793012916, 22.875286417258035, 133.26128793249194, 48.35231945356563, 62.648838689380796 
-161.60149084540203, 1.1628073758563817, 22.875304461656842, 132.57119109550982, 48.271895602718146, 62.64974430207281 
-162.5126030823868, 1.004702221039377, 22.875319614634794, 131.88139267395368, 48.194450642949015, 62.65061670316755 
-163.42468443782823, 0.8524770451865118, 22.875332116561747, 131.191877621308, 48.119994400429825, 62.65145573847157 
-164.33771070021746, 0.7061765717239796, 22.87534220146796, 130.5026313105835, 48.04853632396193, 62.65226126069127 
-165.25165593159429, 0.5658439822229485, 22.875350096677945, 129.81363951552788, 47.9800854836948, 62.6530331293444 
-166.1664925160513, 0.43152088206321493, 22.87535602245562, 129.12488839208586, 47.91465056986697, 62.65377121067351 
-167.08219121090673, 0.3032472667939656, 22.875360191661052, 128.43636446009393, 47.85223989157354, 62.65447537756205 
-167.99872120052027, 0.18106148927957713, 22.875362809419286, 127.7480545851947, 47.792861375563525, 62.6551455094525 
-168.91605015271475, 0.06500022771749867, 22.875364072801837, 127.05994596095691, 47.73652256507102, 62.65578149226748 
-169.83414427775793, -0.04490154538605059, 22.87536417052099, 126.37202609118798, 47.68323061868302, 62.65638321833359 
-170.75296838984863, -0.14861059319837383, 22.875363282637622, 125.68428277242577, 47.632992309247406, 62.65695058630816 
-171.6724859710409, -0.246095443418254, 22.875361580282714, 124.99670407659735, 47.58581402282391, 62.65748350110919 
-172.59265923753225, -0.33732641592950513, 22.87535922539302, 124.30927833383285, 47.54170175768099, 62.65798187384857 
-173.51344920822987, -0.42227564917265203, 22.875356370461226, 123.62199411542298, 47.50066112334111, 62.6584456217687 
-174.43481577550196, -0.5009171251600565, 22.87535315830091, 122.93484021690898, 47.46269733967729, 62.65887466818253 
-175.35671777801042, -0.5732266930631662, 22.87534972182669, 122.2478056412945, 47.42781523606285, 62.65926894241762 
-176.2791130755135, -0.6391820913038947, 22.875346183849686, 121.56087958236911, 47.396019250576735, 62.659628379763525 
-177.20195862551836, -0.6987629680861628, 22.875342656888805, 120.8740514081332, 47.36731342926659, 62.659952921423326 
-178.12521056165502, -0.7519509003075359, 22.8753392429979, 120.18731064431505, 47.34170142547107, 62.66024251446926 
-179.04882427363677, -0.7987294107954364, 22.875336033609134, 119.50064695797023, 47.31918649920348, 62.66049711180202 
-179.97275448866435, -0.8390839838169023, 22.87533310939267, 118.81405014115438, 47.299771516597914, 62.660716672114674 
179.10304464587512, -0.8730020788158265, 22.875330540133096, 118.12751009466072, 47.283458949419504, 62.66090115986053 
178.17861947856852, -0.9004731423366339, 22.87532838462234, 117.44101681181273, 47.27025087463993, 62.661050545225336 
177.25401676915664, -0.9214886180986626, 22.875326690569707, 116.75456036230449, 47.26014897407908, 62.66116480410388 
176.32928360289728, -0.9360419551908875, 22.87532549452878, 116.06813087607965, 47.253154534113946, 62.66124391808101 
175.40446730427936, -0.9441286143623441, 22.875324821841456, 115.38171852724062, 47.249268445455314, 62.661287874417084 
174.47961535025902, -0.9457460723891311, 22.875324686599143, 114.69531351798035, 47.24849120299277, 62.661296666037764 
173.55477528319, -0.940893824504862, 22.875325091621185, 114.00890606252808, 47.25082290570855, 62.6612702915285 
172.6299946236231, -0.929573384887084, 22.875326028450605, 113.32248637110108, 47.25626325666028, 62.66120875513327 
171.7053207831496, -0.9117882851983157, 22.87532747736695, 112.63604463385452, 47.26481156303267, 62.66111206675813 
170.78080097746243, -0.8875440711860171, 22.875329407416594, 111.94957100482117, 47.27646673625818, 62.66098024197893 
169.85648213981008, -0.8568482973518635, 22.87533177646, 111.26305558583293, 47.2912272922062, 62.66081330205372 
168.93241083501383, -0.8197105197064458, 22.875334531236366, 110.57648841041595, 47.309091351440344, 62.660611273939594 
168.0086331742186, -0.7761422866312481, 22.875337607445097, 109.88985942765133, 47.330056639543244, 62.66037419031378 
167.08519473054278, -0.7261571278755302, 22.87534092984443, 109.20315848599257, 47.354120487508084, 62.66010208959942 
166.16214045578937, -0.6697705417210088, 22.875344412366676, 108.51637531703204, 47.38127983219595, 62.65979501599534 
165.2395145983754, -0.6069999803529587, 22.875347958250277, 107.82949951920686, 47.411531216857675, 62.65945301951028 
164.31736062263147, -0.5378648334811259, 22.87535146018826, 107.14252054143641, 47.44487079171919, 62.65907615600128 
163.39572112961713, -0.46238641025914556, 22.875354800492993, 106.45542766668157, 47.481294314628705, 62.65866448721615 
162.47463777959115, -0.3805879195557251, 22.87535785127703, 105.76820999541691, 47.520797151764334, 62.658218080840044 
161.55415121626837, -0.29249444863542323, 22.875360474649742, 105.08085642900619, 47.563374278400076, 62.657737010545986 
160.63430099298762, -0.1981329403110835, 22.875362522929578, 104.39335565297128, 47.609020279728504, 62.65722135604892 
159.71512550090628, -0.09753216863391967, 22.875363838871472, 103.70569612014438, 47.65772935173793, 62.65667120316412 
158.796661899329, 0.009277286808993177, 22.875364255909435, 103.0178660336931, 47.70949530214187, 62.65608664386843 
157.8789460482695, 0.12226306791689603, 22.875363598413593, 102.32985333000758, 47.76431155135817, 62.65546777636565 
156.96201244333434, 0.24139106634090648, 22.8753616819617, 101.64164566143828, 47.822171133535484, 62.654814705154834 
156.04589415300882, 0.36662545291432297, 22.875358313624464, 100.95323037887268, 47.88306669762422, 62.65412754110211 
155.13062275841563, 0.49792870816633505, 22.8753532922646, 100.26459451413916, 47.9469905084889, 62.653406401515134 
154.2162282956066, 0.6352616538358654, 22.87534640884892, 99.57572476222475, 48.013934448059175, 62.652651410220926 
153.30273920043888, 0.7785834853005336, 22.87533744677328, 98.8866074632942, 48.08389001651596, 62.65186269764612 
152.39018225607657, 0.9278518048343113, 22.875326182199824, 98.19722858449612, 48.15684833350939, 62.65104040089992 
151.47858254314954, 1.083022655606362, 22.87531238440608, 97.50757370154248, 48.2328001394052, 62.6501846638593 
150.5679633925915, 1.2440505563327633, 22.875295816145563, 96.81762798004576, 48.31173579655544, 62.64929563725658 
149.65834634116982, 1.4108885364925494, 22.875276234019235, 96.12737615659881, 48.393645290589944, 62.648373478768995 
148.74975108971012, 1.5834881720191714, 22.87525338885748, 95.43680251958082, 48.47851823172435, 62.64741835310998 
147.842195464011, 1.7617996213787435, 22.875227026111954, 94.74589088967228, 48.56634385608045, 62.64643043212217 
146.93569537843368, 1.9457716619470071, 22.875196886256962, 94.05462460006144, 48.65711102701456, 62.64540989487183 
146.03026480214422, 2.1353517265975808, 22.875162705199674, 93.36298647632323, 48.75080823644919, 62.64435692774457 
145.1259157279779, 2.330485940415007, 22.87512421469863, 92.67095881595158, 48.847423606203414, 62.64327172454178 
144.2226581438875, 2.531119157447636, 22.875081142790222, 91.9785233675245, 48.94694488931697, 62.642154486578306 
143.32050000692948, 2.73719499741651, 22.875033214222217, 91.28566130948069, 49.04935947136294, 62.641005422780246 
142.4194472197368, 2.948655882298515, 22.874980150894107, 90.59235322848524, 49.15465437174397, 62.639824749783365 
141.51950360941933, 3.1654430727035847, 22.874921672303444, 89.89857909736152, 49.26281624496616, 62.63861269203167 
140.62067090882735, 3.387496703968206, 22.87485749599767, 89.20431825256412, 49.37383138188549, 62.637369481875574 
139.72294874010956, 3.614755821889421, 22.874787338030977, 88.50954937116809, 49.48768571092048, 62.63609535967 
138.82633460048993, 3.847158418026207, 22.874710913425258, 87.8142504473469, 49.60436479922549, 62.63479057387174 
137.93082385018548, 4.084641464497387, 22.87462793663495, 87.11839876831179, 49.72385385381801, 62.633455381136166 
137.0364097023825, 4.327140948208114, 22.874538122014812, 86.42197088968292, 49.846137722653815, 62.63209004641267 
136.14308321518487, 4.574591904439641, 22.87444118429024, 85.72494261026132, 49.97120089564323, 62.63069484303895 
135.25083328544605, 4.826928449739806, 22.8743368390294, 85.02728894617019, 50.09902750560163, 62.629270052833704 
134.35964664439413, 5.084083814054799, 22.8742248031166, 84.32898410433127, 50.22960132912708, 62.627815966187526 
133.46950785495724, 5.345990372045446, 22.874104795226256, 83.63000145524146, 50.36290578739773, 62.62633288215188 
132.58039931069456, 5.612579673534557, 22.873976536296794, 82.93031350501266, 50.49892394688157, 62.624821108525715 
131.69230123623927, 5.883782473034456, 22.873839750003988, 82.22989186663645, 50.63763851995045, 62.62328096193952 
130.8051916891571, 6.15952875830732, 22.87369416323294, 81.52870723043272, 50.77903186539043, 62.62171276793676 
129.91904656312636, 6.439747777913412, 22.873539506548248, 80.82672933364086, 50.92308598880004, 62.620116861052246 
129.03383959234384, 6.724368067705839, 22.87337551466158, 80.12392692910817, 51.06978254286782, 62.61849358488731 
128.14954235706355, 7.0133174762328085, 22.87320192689623, 79.42026775303029, 51.21910282751994, 62.61684329218146 
127.26612429017598, 7.306523189011798, 22.873018487647823, 78.7157184916941, 51.37102778992897, 62.61516634488045 
126.3835526847361, 7.603911751642623, 22.872824946840772, 78.01024474717319, 51.52553802437374, 62.61346311420012 
125.50179270235296, 7.905409091729116, 22.87262106037973, 77.30381100192224, 51.682613771940694, 62.611733980686566 
124.62080738235348, 8.210940539582229, 22.87240659059555, 76.59638058221499, 51.842234920056, 62.60997933427138 
123.74055765163762, 8.52043084767949, 22.872181306685096, 75.88791562036741, 52.004381001837906, 62.608199574322725 
122.86100233514388, 8.833804208858936, 22.87194498514433, 75.17837701568529, 52.16903119525804, 62.60639510969116 
121.98209816684866, 9.150984273227515, 22.87169741019418, 74.46772439407248, 52.336164322100046, 62.60456635875078 
121.10379980122536, 9.471894163767033, 22.871438374198473, 73.75591606623287, 52.50575884670351, 62.602713749434855 
120.22605982509432, 9.796456490622289, 22.871167678073604, 73.04290898439663, 52.677792874480446, 62.60083771926605 
119.34882876979727, 10.12459336405915, 22.870885131689143, 72.32865869749727, 52.852244150191474, 62.59893871538094 
118.47205512363604, 10.45622640608161, 22.870590554259042, 71.6131193047232, 53.02909005596779, 62.59701719454874 
117.59568534451888, 10.791276760699507, 22.87028377472287, 70.89624340736397, 53.20830760906479, 62.59507362318381 
116.7196638727621, 11.12966510284051, 22.869964632116467, 70.17798205886706, 53.38987345933252, 62.593108477352075 
115.8439331440016, 11.471311645901366, 22.86963297593171, 69.45828471301817, 53.57376388638728, 62.59112224277081 
114.96843360217176, 11.816136147935962, 22.86928866646475, 68.73709917015272, 53.75995479646835, 62.589115414801896 
114.09310371251685, 12.164057916478741, 22.868931575152313, 68.01437152130369, 53.94842171896259, 62.58708849843845 
113.21787997460378, 12.51499581200424, 22.86856158489562, 67.29004609018453, 54.1391398025795, 62.58504200828405 
112.34269693531253, 12.868868250024585, 22.86817859037147, 66.56406537290351, 54.33208381115774, 62.58297646852542 
111.46748720178513, 13.225593201828785, 22.867782498330065, 65.83636997529895, 54.52722811908393, 62.5808924128974 
110.59218145432136, 13.585088193868526, 22.86737322787922, 65.10689854778177, 54.72454670630321, 62.57879038464075 
109.71670845921541, 13.947270305797122, 22.866950710754423, 64.37558771756532, 54.92401315289986, 62.576670936452395 
108.84099508153353, 14.312056167169247, 22.866514891574624, 63.6423720181577, 55.12560063322594, 62.574534630427934 
107.96496629784113, 14.679361952810412, 22.866065728083065, 62.907183815986286, 55.32928190955373, 62.5723820379964 
107.08854520889277, 15.049103376866604, 22.865603191373165, 62.16995323401821, 55.53502932522759, 62.570213739847176 
106.21165305230765, 15.421195685545449, 22.86512726609886, 61.43060807223493, 55.74281479728881, 62.568030325848895 
105.3342092152587, 15.79555364856187, 22.86463795066924, 60.68907372481265, 55.95260980854596, 62.56583239496015 
