# MEX_intpoint_lon [deg], MEX_intpoint_lat [deg], MEX_intpoint_angle [deg], TGO_intpoint_lon [deg], TGO_intpoint_lat [deg], TGO_intpoint_angle [deg] 
-103.9354009282019, 20.419171579370072, 22.297172561233296, -148.28788884450083, 59.0435989868704, 62.52957097560069 
-104.84454146538924, 20.052766287212346, 22.297755124428907, -149.08142662499915, 58.82027109841439, 62.531792570946884 
-105.75199173141228, 19.687352861102095, 22.29832745113661, -149.87144509925722, 58.598453731258815, 62.53400840684051 
-106.65784229505421, 19.32302069761266, 22.29888937925494, -150.6580579084685, 58.37818225330792, 62.536217812381096 
-107.56218243009513, 18.95985853403397, 22.29944075907438, -151.4413750585863, 58.15949141064231, 62.538420123283 
-108.46510008639858, 18.597954464594434, 22.299981453296937, -152.22150304602002, 57.942415345842605, 62.540614682062355 
-109.36668186245429, 18.237395955986337, 22.300511337040724, -152.99854497869217, 57.72698761529483, 62.542800838216415 
-110.26701297925196, 17.878269862157673, 22.301030297829666, -153.77260069260643, 57.51324120552668, 62.544977948395044 
-111.16617725537019, 17.5206624383345, 22.301538235568277, -154.54376686407886, 57.30120854862052, 62.54714537656466 
-112.06425708317184, 17.164659354241135, 22.30203506250165, -155.31213711778133, 57.09092153674752, 62.54930249416422 
-112.96133340600613, 16.810345706486633, 22.302520703160816, -156.07780213074645, 56.882411535864684, 62.5514486802536 
-113.85748569632457, 16.457806030088953, 22.30299509429341, -156.84084973247872, 56.675709398614835, 62.553583321654145 
-114.75279193462572, 16.10712430910919, 22.30345818477994, -157.6013650013166, 56.47084547646761, 62.555705813081545 
-115.64732858915193, 15.758383986370696, 22.303909935535742, -158.35943035718557, 56.26784963113731, 62.557815557271006 
-116.54117059626714, 15.411667972239458, 22.30435031939874, -159.11512565087884, 56.06675124531259, 62.559911965094734 
-117.4343913414532, 15.067058652443551, 22.30477932100329, -159.8685282500009, 55.867579232730165, 62.561994455671886 
-118.3270626408681, 14.724637894911703, 22.30519693664018, -160.61971312170337, 55.67036204762428, 62.56406245647082 
-119.21925472341711, 14.384487055611773, 22.305603174103148, -161.3687529123405, 55.4751276935813, 62.56611540340411 
-120.11103621329356, 14.046686983372341, 22.30599805252198, -162.1157180241672, 55.28190373182792, 62.56815274091576 
-121.0024741129535, 13.711318023671495, 22.306381602182576, -162.8606766891986, 55.09071728897992, 62.5701739220614 
-121.89363378649323, 13.378460021378777, 22.3067538643342, -163.60369504034753, 54.90159506427732, 62.57217840858104 
-122.78457894340644, 13.048192322437618, 22.307114890984113, -164.34483717995064, 54.714563336330215, 62.57416567096478 
-123.67537162270244, 12.720593774477113, 22.30746474467999, -165.08416524579184, 54.52964796939893, 62.57613518851128 
-124.56607217737304, 12.395742726343533, 22.307803498280418, -165.82173947472702, 54.346874419230744, 62.57808644937944 
-125.45673925920201, 12.073717026543445, 22.30813123471368, -166.557618264011, 54.1662677384744, 62.58001895063308 
-126.3474298039145, 11.754594020591938, 22.30844804672528, -167.2918582304231, 53.987852581693, 62.58193219827908 
-127.23819901667211, 11.438450547260809, 22.308754036614552, -168.02451426728527, 53.811653209994404, 62.583825707298786 
-128.12910035792126, 11.12536293372355, 22.309049315960625, -168.75563959946268, 53.63769349529814, 62.585699001672914 
-129.02018552960968, 10.815406989595065, 22.309334005338183, -169.48528583643332, 53.46599692425614, 62.587551614400354 
-129.9115044617895, 10.508657999866331, 22.309608234023447, -170.21350302350996, 53.296586601844844, 62.58938308751058 
-130.80310529963074, 10.205190716735299, 22.309872139690654, -170.94033969129447, 53.129485254644486, 62.59119297207018 
-131.6950343908723, 9.905079350337608, 22.310125868099554, -171.66584290344184, 52.96471523382148, 62.59298082818349 
-132.5873362737437, 9.608397558382151, 22.31036957277436, -172.3900583028077, 52.80229851782884, 62.59474622498741 
-133.48005366539218, 9.315218434698531, 22.31060341467439, -173.11303015605023, 52.64225671483875, 62.59648874064106 
-134.37322745085626, 9.02561449670529, 22.31082756185714, -173.83480139675538, 52.48461106492147, 62.598207962309765 
-135.26689667262926, 8.739657671809747, 22.311042189133982, -174.55541366715025, 52.329382441983356, 62.59990348614379 
-136.16109852085862, 8.457419282752237, 22.311247477719082, -175.27490735846797, 52.17659135547692, 62.601574917252634 
-137.05586832423293, 8.178970031909799, 22.311443614871973, -175.99332165002446, 52.02625795189532, 62.60322186967386 
-137.9512395416082, 7.904379984576096, 22.31163079353425, -176.71069454706455, 51.878402016062424, 62.60484396633783 
-138.8472437544302, 7.633718551236717, 22.311809211960874, -177.4270629174339, 51.733042972230514, 62.60644083902784 
-139.74391066001087, 7.367054468861386, 22.31197907334656, -178.1424625271291, 51.59019988499587, 62.60801212833599 
-140.64126806571912, 7.104455781236288, 22.31214058544781, -178.85692807477767, 51.44989146004302, 62.60955748361529 
-141.53934188414857, 6.845989818362511, 22.312293960201007, -179.5704932250968, 51.31213604472764, 62.61107656292762 
-142.43815612932622, 6.5917231749487115, 22.31243941333711, 179.71680935862236, 51.17695162850791, 62.61256903298854 
-143.3377329140273, 6.341721688028226, 22.312577163993478, 179.00494798295944, 51.04435584323366, 62.61403456910831 
-144.2380924482628, 6.096050413733534, 22.312707434323315, 178.29389189369562, 50.91436596330228, 62.61547285513011 
-145.1392530390065, 5.854773603263136, 22.31283044910327, 177.5836112459894, 50.786998905690325, 62.61688358336494 
-146.04123109122875, 5.617954678078262, 22.312946435339676, 176.87407707535704, 50.662271229869056, 62.6182664545242 
-146.94404111030514, 5.385656204369188, 22.313055621873982, 176.16526126942014, 50.54019913761218, 62.619621177649385 
-147.84769570586604, 5.157939866833454, 22.31315823898789, 175.45713654038389, 50.42079847270369, 62.62094747003979 
-148.7522055971544, 4.934866441810208, 22.313254518008744, 174.7496763982108, 50.30408472055328, 62.62224505717783 
-149.65757961995618, 4.716495769817732, 22.313344690915592, 174.0428551244571, 50.19007300772689, 62.623513672652784 
-150.56382473516857, 4.50288672754287, 22.31342898994661, 173.3366477467389, 50.07877810139926, 62.62475305808272 
-151.47094603906635, 4.2940971993338195, 22.313507647208205, 172.63103001379838, 49.97021440873564, 62.62596296303507 
-152.37894677532827, 4.090184048249456, 22.31358089428655, 171.92597837114, 49.86439597620905, 62.627143144945926 
-153.2878283488794, 3.8912030867206733, 22.31364896186178, 171.2214699372085, 49.7613364888597, 62.62829336903836 
-154.1975903416042, 3.6972090468811625, 22.313712079325672, 170.5174824800824, 49.661049269502755, 62.629413408240204 
-155.10823052998194, 3.5082555506267683, 22.313770474402986, 169.81399439465648, 49.56354727789038, 62.63050304310067 
-156.01974490469152, 3.324395079464583, 22.31382437277729, 169.1109846802886, 49.46884310983395, 62.63156206170728 
-156.93212769222927, 3.145678944214417, 22.313873997721515, 168.40843291888763, 49.376948996292036, 62.63259025960234 
-157.84537137857836, 2.9721572546267465, 22.31391956973384, 167.70631925341903, 49.28787680242958, 62.633587439699276 
-158.75946673496475, 2.8038788889828465, 22.313961306179387, 167.0046243668071, 49.20163802665349, 62.63455341219968 
-159.67440284572834, 2.6408914637437424, 22.313999420938174, 166.30332946121226, 49.118243799629646, 62.635487994510434 
-160.5901671383338, 2.483241303315807, 22.314034124059788, 165.602416237664, 49.0377048832865, 62.63639101116175 
-161.50674541553818, 2.3309734100017443, 22.314065621425264, 164.90186687602986, 48.96003166980933, 62.63726229372573 
-162.42412188972858, 2.1841314342061686, 22.314094114416594, 164.20166401530273, 48.885234180630526, 62.638101680736455 
-163.34227921943526, 2.042757644965669, 22.31411979959432, 163.50179073418767, 48.81332206541952, 62.638909017610814 
-164.26119854802, 1.906892900873337, 22.314142868383588, 162.80223053197287, 48.74430460107695, 62.639684156571064 
-165.18085954453215, 1.7765766214679575, 22.314163506769223, 162.10296730966724, 48.67819069073689, 62.64042695656869 
-166.10124044671934, 1.651846759157686, 22.31418189499995, 161.40398535138974, 48.61498886278126, 62.6411372832105 
-167.02231810617099, 1.5327397717477451, 22.314198207302514, 160.70526930599524, 48.55470726986973, 62.64181500868597 
-167.9440680355675, 1.4192905956410529, 22.31421261160575, 160.0068041689228, 48.49735368798897, 62.64246001169717 
-168.866464458, 1.3115326197796762, 22.314225269275216, 159.3085752642523, 48.44293551552442, 62.6430721773908 
-169.78948035831758, 1.2094976603939818, 22.314236334858556, 158.61056822695616, 48.3914597723579, 62.64365139729257 
-170.71308753645445, 1.1132159366249632, 22.31424595584205, 157.9127689853334, 48.34293309899406, 62.644197569244035 
-171.63725666267874, 1.0227160470835703, 22.314254272418644, 157.215163743614, 48.29736175571848, 62.64471059734226 
-172.56195733470065, 0.9380249474090219, 22.314261417267705, 156.51773896472096, 48.25475162179034, 62.645190391882146 
-173.4871581365692, 0.8591679288860192, 22.31426751534692, 155.8204813531796, 48.21510819467202, 62.64563686930172 
-174.41282669928063, 0.7861685981783423, 22.314272683696494, 155.12337783816173, 48.17843658929817, 62.64604995213049 
-175.3389297630145, 0.7190488582338832, 22.31427703125597, 154.42641555665543, 48.144741537386494, 62.64642956894094 
-176.26543324090775, 0.657828890413221, 22.314280658693878, 153.72958183674842, 48.11402738679223, 62.64677565430318 
-177.19230228427097, 0.6025271378909896, 22.314283658250517, 153.03286418101655, 48.08629810090845, 62.647088148742974 
-178.11950134914474, 0.5531602903759374, 22.31428611359396, 152.3362502500062, 48.06155725811384, 62.64736699870345 
-179.04699426408928, 0.5097432701922864, 22.31428809968958, 151.6397278458018, 48.03980805126946, 62.6476121565099 
-179.9747442990952, 0.47228921976134264, 22.31428968268319, 150.94328489566905, 48.021053287266334, 62.64782358033845 
179.09728576450078, 0.4408094905185764, 22.31429091979805, 150.24690943576445, 48.00529538662472, 62.64800123418839 
178.16913356321643, 0.4153136332974614, 22.314291859245742, 149.5505895949022, 47.99253638314647, 62.64814508785799 
177.240837079865, 0.39580939020738576, 22.31429254015116, 148.85431357837012, 47.98277792362152, 62.64825511692438 
176.31243457136375, 0.38230268802869055, 22.31429299249165, 148.15806965178544, 47.97602126758906, 62.64833130272704 
175.38396449604082, 0.37479763314366293, 22.31429323705039, 147.46184612498178, 47.97226728715438, 62.64837363235521 
174.45546544057197, 0.37329650801801206, 22.314293285384068, 146.76563133591984, 47.9715164668617, 62.64838209863901 
173.5269760466813, 0.3777997692428534, 22.314293139804917, 146.06941363461192, 47.97376890362342, 62.648356700144745 
172.59853493774065, 0.38830604714282885, 22.314292793377135, 145.37318136705335, 47.979024306705895, 62.64829744117383 
171.67018064540275, 0.4048121469514707, 22.314292229927645, 144.67692285915135, 47.987281997771994, 62.64820433176569 
170.7419515364032, 0.42731305155045385, 22.31429142407124, 143.98062640064384, 47.99854091098006, 62.6480773877047 
169.81388573966566, 0.45580192576490536, 22.314290341250086, 143.2842802289992, 48.01279959313915, 62.647916630530716 
168.886021073843, 0.4902701222024574, 22.31428893778745, 142.58787251328874, 48.03005620392006, 62.64772208755371 
167.9583949754262, 0.5307071886194045, 22.314287160955654, 141.89139133802374, 48.050308516121625, 62.647493791872144 
167.03104442754906, 0.5771008767929812, 22.314284949058152, 141.19482468694773, 48.07355391599142, 62.64723178239508 
166.10400588961562, 0.6294371528745629, 22.314282231525596, 140.49816042677602, 48.099789403600035, 62.64693610386811 
165.177315227872, 0.6877002091944727, 22.314278929025807, 139.80138629087318, 48.12901159326782, 62.646606806902895 
164.25100764704175, 0.7518724774851588, 22.314274953587447, 139.10448986285948, 48.161216714042915, 62.64624394801035 
163.3251176231394, 0.8219346434855618, 22.314270208737277, 138.40745856013703, 48.1964006102291, 62.64584758963755 
162.39967883757078, 0.8978656628859529, 22.314264589650755, 137.71027961732648, 48.23455874196202, 62.64541780020773 
161.47472411262595, 0.9796427785689125, 22.314257983315922, 137.0129400696042, 48.27568618583203, 62.644954654164025 
160.55028534846204, 1.0672415390988483, 22.31425026871015, 136.31542673593017, 48.319777635551816, 62.64445823201642 
159.6263934616704, 1.1606358184094134, 22.314241316989644, 135.61772620215618, 48.366827402666694, 62.643928620391776 
158.70307832551387, 1.2597978366351057, 22.314230991691485, 134.91982480400398, 48.41682941730559, 62.64336591208708 
157.78036871191526, 1.3646981820308826, 22.314219148947775, 134.2217086099024, 48.46977722897025, 62.642770206125654 
156.8582922352702, 1.475305833920949, 22.314205637711837, 133.523363403672, 48.525664007360184, 62.64214160781615 
155.936875298152, 1.5915881866157753, 22.314190299995932, 132.82477466704572, 48.58448254323065, 62.641480228814316 
155.0161430389677, 1.7135110742344875, 22.314172971120353, 132.12592756201346, 48.646225249281116, 62.64078618718744 
154.0961192816188, 1.84103879636782, 22.31415347997348, 131.4268069129778, 48.7108841610709, 62.64005960748102 
153.1768264872121, 1.9741341445154834, 22.314131649282434, 130.7273971887082, 48.77845093795905, 62.63930062078809 
152.25828570785933, 2.1127584292306065, 22.314107295894097, 130.02768248407983, 48.84891686406525, 62.63850936482032 
151.34051654259693, 2.2568715079026727, 22.31408023106593, 129.32764650158288, 48.92227284924809, 62.637685983981434 
150.4235370954507, 2.406431813109795, 22.314050260766404, 128.62727253258805, 48.9985094300972, 62.63683062944225 
149.5073639356622, 2.561396381470653, 22.314017185984444, 127.92654343835291, 49.0776167709356, 62.635943459217515 
148.5920120600873, 2.721720882925919, 22.313980803047752, 127.2254416307525, 49.15958466482809, 62.63502463824419 
147.67749485777165, 2.887359650379214, 22.313940903949195, 126.52394905271895, 49.24440253459172, 62.63407433846098 
146.76382407669874, 3.058265709627487, 22.313897276681242, 125.82204715837169, 49.332059433804105, 62.63309273888918 
145.8510097927027, 3.234390809511424, 22.31384970557776, 125.11971689282063, 49.42254404780499, 62.63208002571425 
144.93906038053004, 3.4156854522166205, 22.31379797166265, 124.416938671624, 49.515844694686635, 62.6310363923683 
144.02798248702942, 3.6020989236575196, 22.313741853005226, 123.71369235988043, 49.611949326268075, 62.62996203961299 
143.1177810064428, 3.7935793238766164, 22.313681125081366, 123.0099572509357, 49.7108455290484, 62.62885717562303 
142.20845905776656, 3.9900735973928536, 22.313615561140413, 122.30571204468212, 49.812520525133834, 62.62772201606961 
141.30001796414518, 4.19152756343429, 22.313544932577024, 121.60093482542898, 49.916961173133345, 62.62655678420375 
140.39245723425705, 4.397885945991626, 22.313469009307706, 120.89560303931995, 50.024153969017206, 62.625361710939735 
139.48577454564636, 4.609092403630593, 22.31338756015126, 120.18969347127468, 50.13408504693286, 62.62413703493765 
138.5799657299517, 4.825089559003265, 22.313300353213005, 119.4831822214273, 50.246740179972065, 62.62288300268563 
137.67502475997904, 5.0458190279997295, 22.313207156271908, 118.77604468103743, 50.362104780883335, 62.621599868580894 
136.77094373856252, 5.271221448483822, 22.313107737170395, 118.0682555078448, 50.48016390272332, 62.620287895009945 
135.86771288915492, 5.501236508558593, 22.313001864206097, 117.35978860083902, 50.60090223944047, 62.618947352427256 
134.965320548086, 5.7358029743090695, 22.312889306525193, 116.65061707441512, 50.72430412638439, 62.617578519432506 
134.06375315842675, 5.974858716972316, 22.312769834516754, 115.94071323188237, 50.85035354073376, 62.61618168284617 
133.16299526539376, 6.218340739486834, 22.31264322020753, 115.23004853829475, 50.979034101835595, 62.61475713778287 
132.26302951322853, 6.466185202375754, 22.312509237656755, 114.51859359256821, 51.11032907144853, 62.613305187722766 
131.3638366434847, 6.718327448920385, 22.312367663350354, 113.80631809884947, 51.24422135388209, 62.611826144580476 
130.4653954946559, 6.974702029583314, 22.312218276594106, 113.09319083709879, 51.380693496024165, 62.61032032877139 
129.5676830030772, 7.235242725642216, 22.312060859905156, 112.37917963284845, 51.519727687248356, 62.60878806927504 
128.67067420503187, 7.49988257199835, 22.311895199401476, 111.66425132609564, 51.661305759192544, 62.6072297036955 
127.77434223999818, 7.768553879125584, 22.31172108518868, 110.94837173928838, 51.805409185399775, 62.605645578318686 
126.87865835496918, 8.041188254128501, 22.31153831174365, 110.23150564435966, 51.95201908081237, 62.60403604816577 
125.98359190978123, 8.317716620880413, 22.311346678294544, 109.51361672876399, 52.101116201109555, 62.60240147704328 
125.0891103833882, 8.598069239214109, 22.311145989196696, 108.79466756046882, 52.25268094187878, 62.600742237589174 
124.19517938101954, 8.882175723141005, 22.31093605430378, 108.0746195518498, 52.40669333761054, 62.59905871131476 
123.30176264216303, 9.169965058075938, 22.310716689333884, 107.35343292243878, 52.56313306050574, 62.597351288642365 
122.40882204931495, 9.461365617047708, 22.310487716229947, 106.6310666604693, 52.72197941908495, 62.59562036893851 
121.51631763744345, 9.756305175877065, 22.310248963514077, 105.90747848316332, 52.88321135658758, 62.593866360542506 
120.62420760411308, 10.054710927306425, 22.310000266635246, 105.18262479569957, 53.04680744914939, 62.59208968078979 
119.7324483202221, 10.35650949406728, 22.309741468310058, 104.45646064880253, 53.21274590374568, 62.590290756030726 
118.84099434130721, 10.661626940873607, 22.30947241885588, 103.72893969488712, 53.3810045558872, 62.588470021643616 
117.94979841937388, 10.969988785331386, 22.309192976516083, 103.00001414269258, 53.551560867055464, 62.58662792204282 
117.05881151521444, 11.281520007756129, 22.308903007776955, 102.26963471033598, 53.72439192186313, 62.5847649106807 
116.16798281117931, 11.596145059892706, 22.308602387675673, 101.53775057671234, 53.89947442492509, 62.58288145004424 
115.27725972437223, 11.913787872532785, 22.30829100009918, 100.80430933116635, 54.07678469742475, 62.580978011645655 
114.38658792024282, 12.2343718620278, 22.307968738073352, 100.06925692135678, 54.25629867335975, 62.57905507600656 
113.49591132655638, 12.557819935696429, 22.307635504042164, 99.3325375992321, 54.43799189545025, 62.57711313263644 
112.60517214772356, 12.884054496127737, 22.30729121013647, 98.59409386503202, 54.621839510692574, 62.57515268000422 
111.71431087947904, 13.21299744438237, 22.30693577843199, 97.85386640922727, 54.80781626553996, 62.57317422550375 
110.82326632390208, 13.544570182096251, 22.306569141196146, 97.111794052305, 54.99589650069131, 62.57117828541223 
109.93197560477795, 13.878693612492288, 22.30619124112352, 96.36781368230547, 55.18605414546819, 62.56916538484219 
109.04037418330427, 14.215288140307607, 22.30580203155942, 95.62186019001088, 55.37826271175914, 62.56713605768637 
108.14839587415123, 14.55427367064521, 22.305401476711374, 94.87386640168351, 55.572495287509504, 62.56509084655554 
107.25597286189186, 14.895569606760244, 22.304989551848223, 94.123763009248, 55.76872452973392, 62.56303030270947 
106.36303571782226, 15.239094846792986, 22.304566243486544, 93.37147849780683, 55.96692265702756, 62.5609549859803 
105.4695134172, 15.58476777946177, 22.304131549564026, 92.61693907037628, 56.16706144155088, 62.55886546468903 
104.57533335693309, 15.932506278730957, 22.30368547959976, 91.86006856972473, 56.36911220046172, 62.556762315554174 
