# MEX_intpoint_lon [deg], MEX_intpoint_lat [deg], MEX_intpoint_angle [deg], TGO_intpoint_lon [deg], TGO_intpoint_lat [deg], TGO_intpoint_angle [deg] 
-104.76562766073829, 20.609443564934615, 22.797364191614363, -177.98695821089387, 58.853750485850426, 62.535068998781256 
-105.65940203145325, 20.217194670980664, 22.79800782932152, -178.76989457514253, 58.62484951291423, 62.53735474942163 
-106.5514667808451, 19.82608275447564, 22.798639486947902, -179.54940411291963, 58.39752203514495, 62.53963440252457 
-107.44192323405397, 19.436199951376114, 22.79925898642834, 179.67439962329163, 58.171803135967465, 62.54190726815815 
-108.3308710908241, 19.047637713841457, 22.799866164204044, 178.90140681786633, 57.94772729340336, 62.54417266340512 
-109.2184084055122, 18.660486832629864, 22.800460871242038, 178.13151125773584, 57.725328398177, 62.546429912554565 
-110.10463156825323, 18.274837458510493, 22.80104297303722, 177.3646102033955, 57.50463977077765, 62.54867834728542 
-110.98963528713992, 17.89077912265943, 22.801612349596788, 176.60060426502193, 57.285694177529706, 62.55091730684151 
-111.87351257128432, 17.508400756008644, 22.802168895407437, 175.83939728350086, 57.06852384571998, 62.55314613819883 
-112.75635471463933, 17.12779070751973, 22.802712519385143, 175.0808962161739, 56.853160477829306, 62.555364196224176 
-113.63825128046905, 16.74903676135552, 22.80324314480777, 174.3250110271156, 56.639635264912236, 62.55757084382572 
-114.51929008636583, 16.372226152924807, 22.80376070923062, 173.57165458175777, 56.42797889916728, 62.559765452095554 
-115.3995571897223, 15.997445583776893, 22.80426516438509, 172.820742545684, 56.218221585737346, 62.56194740044371 
-116.279136873575, 15.624781235324095, 22.804756476060543, 172.07219328742153, 56.010393053778486, 62.564116076724325 
-117.15811163274569, 15.254318781372142, 22.805234623969618, 171.32592778506464, 55.80452256683259, 62.566270877353524 
-118.03656216021508, 14.886143399439332, 22.80569960159727, 170.5818695365677, 55.60063893253851, 62.56841120741929 
-118.9145673336714, 14.520339780847253, 22.806151416033575, 169.83994447355272, 55.39877051171385, 62.57053648078345 
-119.79220420218559, 14.156992139566489, 22.80659008779078, 169.1000808784813, 55.19894522683817, 62.572646120175484 
-120.669547972971, 13.796184219802736, 22.80701565060469, 168.36220930504646, 55.001190569967065, 62.5747395572787 
-121.54667199819517, 13.437999302309398, 22.807428151220748, 167.6262625016448, 54.80553361010489, 62.57681623280857 
-122.4236477618166, 13.082520209414508, 22.807827649165144, 166.8921753377951, 54.612001000062556, 62.578875596583316 
-123.30054486642824, 12.729829308750642, 22.80821421650121, 166.15988473337495, 54.42061898282568, 62.58091710758711 
-124.17743102009551, 12.380008515678245, 22.808587937571435, 165.42932959055094, 54.231413397457054, 62.58294023402545 
-125.05437202318362, 12.033139294393584, 22.808948908725615, 164.7004507282835, 54.0444096845564, 62.58494445337365 
-125.9314317551755, 11.689302657714368, 22.80929723803525, 163.97319081929322, 53.8596328912989, 62.58692925241775 
-126.80867216148827, 11.348579165537211, 22.8096330449948, 163.24749432937764, 53.67710767607378, 62.58889412728837 
-127.68615324030227, 11.011048921962422, 22.80995646021012, 162.5233074589743, 53.49685831274217, 62.590838583487916 
-128.5639330294221, 10.676791571083548, 22.810267625074495, 161.80057808686942, 53.3189086945338, 62.592762135910476 
-129.4420675931961, 10.345886291439994, 22.81056669143271, 161.0792557159546, 53.14328233759994, 62.594664308855464 
-130.32061100952532, 10.018411789133395, 22.810853821233664, 160.35929142094022, 52.970002384240566, 62.59654463603475 
-131.19961535699863, 9.694446289609331, 22.811129186171915, 159.64063779793594, 52.79909160582166, 62.59840266057311 
-132.07913070219644, 9.374067528108522, 22.811392967318643, 158.9232489158137, 52.63057240539879, 62.60023793500278 
-132.95920508721042, 9.057352738792703, 22.811645354742616, 158.20708026927156, 52.4644668200622, 62.602050021252225 
-133.8398845174299, 8.744378642552947, 22.81188654712158, 157.49208873352097, 52.30079652301748, 62.60383849062863 
-134.72121294965345, 8.435221433509879, 22.812116751344558, 156.77823252052255, 52.13958282541637, 62.60560292379506 
-135.60323228058493, 8.129956764217274, 22.812336182105714, 156.06547113669868, 51.980846677950346, 62.60734291074224 
-136.48598233578065, 7.828659729582891, 22.81254506149018, 155.35376534205514, 51.82460867222042, 62.60905805075501 
-137.36950085911536, 7.531404849522602, 22.812743618552506, 154.64307711064612, 51.670889041895045, 62.610747952373835 
-138.25382350284116, 7.238266050366162, 22.81293208888818, 153.93336959232, 51.51970766366823, 62.612412233351286 
-139.1389838183147, 6.949316645035283, 22.81311071419892, 153.22460707568584, 51.37108405802901, 62.614050520604266 
-140.0250132474723, 6.66462931201758, 22.813279741852185, 152.51675495224387, 51.22503738985349, 62.61566245016167 
-140.91194111513502, 6.38427607316199, 22.813439424435547, 151.8097796816244, 51.08158646882971, 62.61724766710771 
-141.79979462222838, 6.108328270324371, 22.813590019306513, 151.10364875788335, 50.940749749725846, 62.6188058255216 
-142.68859884000344, 5.836856540894484, 22.813731788138373, 150.39833067680377, 50.80254533251123, 62.62033658841333 
-143.57837670534778, 5.569930792238265, 22.81386499646268, 149.69379490415594, 50.66699096233977, 62.62183962765596 
-144.46914901727695, 5.307620175092363, 22.81398991320893, 148.99001184486931, 50.53410402940499, 62.62331462391468 
-145.3609344346963, 5.049993055950512, 22.814106810242173, 148.28695281307324, 50.40390156867537, 62.62476126657266 
-146.2537494755266, 4.7971169884844125, 22.81421596189896, 147.58459000296446, 50.27640025951846, 62.626179253654456 
-147.14760851728408, 4.549058684044524, 22.814317644522387, 146.88289646045996, 50.15161642522211, 62.62756829174638 
-148.04252379920732, 4.305883981289304, 22.81441213599685, 146.18184605559892, 50.029566032420725, 62.62892809591482 
-148.9385054260226, 4.067657814994106, 22.81449971528303, 145.48141345565503, 49.91026469043414, 62.63025838962226 
-149.835561373437, 3.834444184094149, 22.81458066195378, 144.7815740989254, 49.79372765052669, 62.63155890464169 
-150.73369749544875, 3.606306119018553, 22.814655255731562, 144.08230416916172, 49.67996980509349, 62.63282938096895 
-151.63291753356063, 3.383305648375512, 22.814723776027886, 143.3835805706121, 49.569005686781004, 62.63406956673397 
-152.53322312798147, 3.1655037650513327, 22.814786501485635, 142.6853809036425, 49.46084946754862, 62.63527921811075 
-153.43461383089573, 2.9529603917888023, 22.814843709524546, 141.98768344090837, 49.355514957677634, 62.63645809922632 
-154.3370871218797, 2.7457343463130153, 22.81489567589072, 141.2904671040489, 49.253015604734045, 62.63760598206895 
-155.24063842553753, 2.5438833060752146, 22.814942674210606, 140.59371144087666, 49.15336449249123, 62.63872264639591 
-156.14526113142657, 2.3474637726876386, 22.81498497555011, 139.89739660303655, 49.056574339818326, 62.6398078796411 
-157.0509466163357, 2.1565310361247465, 22.81502284797935, 139.20150332411066, 48.962657499540036, 62.640861476822195 
-157.95768426897595, 1.9711391387680324, 22.815056556143702, 138.50601289814426, 48.87162595727348, 62.64188324044847 
-158.865461517136, 1.7913408393737786, 22.815086360841693, 137.81090715857135, 48.78349133024718, 62.64287298042853 
-159.77426385734935, 1.6171875770448072, 22.81511251861022, 137.11616845751786, 48.698264866107564, 62.64383051397906 
-160.68407488711244, 1.4487294352887095, 22.81513528131771, 136.421779645462, 48.61595744171769, 62.6447556655341 
-161.59487633968686, 1.2860151062464875, 22.81515489576583, 135.72772405123234, 48.53657956195325, 62.645648266655364 
-162.50664812150976, 1.1290918551765776, 22.81517160330006, 135.03398546232427, 48.46014135850021, 62.64650815594385 
-163.41936835223018, 0.9780054852799374, 22.815185639429913, 134.34054810551734, 48.386652588658634, 62.64733517895286 
-164.33301340737984, 0.8328003029526498, 22.81519723345905, 133.64739662777598, 48.31612263415704, 62.64812918810246 
-165.24755796367785, 0.6935190835526354, 22.815206608125933, 132.95451607741703, 48.24856049998113, 62.64889004259609 
-166.1629750469617, 0.5602030377671209, 22.81521397925558, 132.26189188552843, 48.183974813221205, 62.64961760833867 
-167.0792360827255, 0.43289177866717826, 22.81521955542253, 131.56950984762344, 48.12237382194159, 62.650311757857196 
-167.9963109492399, 0.31162328953511204, 22.815223537625872, 130.87735610551664, 48.06376539407612, 62.65097237022361 
-168.91416803321596, 0.1964338925495673, 22.815226118976568, 130.18541712940672, 48.008157016352726, 62.651599330980055 
-169.83277428796808, 0.08735821841182813, 22.81522748439741, 129.49367970015365, 47.955555793250696, 62.652192532066834 
-170.75209529402082, -0.01557082300444907, 22.815227810336264, 128.80213089173648, 47.905968445993565, 62.652751871753175 
-171.67209532209435, -0.11232207090007738, 22.815227264492684, 128.11075805387983, 47.85940131158067, 62.65327725457099 
-172.59273739839549, -0.20286614061559163, 22.81522600555846, 127.41954879483727, 47.81586034186007, 62.65376859125156 
-173.51398337213055, -0.2871754494395754, 22.815224182972422, 126.72849096431949, 47.77535110264562, 62.654225798665635 
-174.4357939851481, -0.36522424108730417, 22.81522193668971, 126.03757263655679, 47.73787877288042, 62.65464879976671 
-175.35812894361123, -0.43698860878027357, 22.815219396965983, 125.34678209348486, 47.703448143849265, 62.655037523537956 
-176.28094699158927, -0.5024465168604765, 22.815216684156702, 124.65610780804342, 47.672063618442, 62.65539190494245 
-177.20420598645228, -0.561577820877094, 22.815213908531838, 123.96553842757783, 47.643729210469836, 62.65571188487742 
-178.12786297594292, -0.6143642860872722, 22.815211170106263, 123.27506275733401, 47.618448544036475, 62.65599741013188 
-179.05187427679382, -0.6607896043168594, 22.81520855848597, 122.5846697440367, 47.59622485296574, 62.65624843334851 
-179.97619555475106, -0.7008394091315052, 22.815206152730443, 121.89434845954241, 47.57706098028712, 62.65646491298912 
179.09921809414104, -0.7345012892734076, 22.815204021231214, 121.20408808455767, 47.560959377780655, 62.65664681330437 
178.17441206114438, -0.761764800323598, 22.81520222160692, 120.51387789241387, 47.54792210558228, 62.65679410430748 
177.2494321414766, -0.7826214745552117, 22.815200800614882, 119.82370723288983, 47.537950831850715, 62.656906761751955 
176.32432445016536, -0.7970648289480966, 22.815199794079412, 119.13356551607397, 47.53104683249668, 62.65698476711366 
175.39913533727068, -0.8050903713408447, 22.81519922683686, 118.44344219625718, 47.527210990975135, 62.65702810757699 
174.47391130264165, -0.806695604701642, 22.815199112697563, 117.75332675584849, 47.5264437981412, 62.657036776025244 
173.54869891037595, -0.8018800295052051, 22.815199454424622, 117.06320868930503, 47.52874535216992, 62.6570107710354 
172.62354470315148, -0.7906451442084622, 22.815200243729745, 116.37307748706797, 47.53411535854019, 62.65695009687688 
171.69849511660078, -0.7729944438237484, 22.81520146128588, 115.68292261949676, 47.54255313008293, 62.656854763514936 
170.7735963938979, -0.7489334165936421, 22.815203076756887, 114.99273352079287, 47.55405758709329, 62.65672478661794 
169.84889450072703, -0.7184695387775684, 22.815205048844025, 114.30249957290496, 47.56862725750663, 62.656560187569276 
168.92443504080032, -0.6816122675658112, 22.815207325349306, 113.61221008940771, 47.58626027713785, 62.656360993483 
168.00026317208935, -0.6383730321422365, 22.815209843255552, 112.921854299345, 47.606954389983464, 62.656127237224176 
167.0764235239325, -0.5887652229224835, 22.815212528823114, 112.23142133102982, 47.63070694858554, 62.655858957433026 
166.15296011517572, -0.5328041789997799, 22.815215297703052, 111.54090019579189, 47.65751491445681, 62.655556198553256 
165.2299162734997, -0.4705071738357433, 22.81521805506672, 110.8502797716644, 47.687374858565555, 62.65521901086444 
164.30733455608183, -0.4018933992385054, 22.815220695751474, 110.15954878700066, 47.72028296187917, 62.654847450518474 
163.3852566717346, -0.32698394767553146, 22.815223104422408, 109.46869580401197, 47.75623501596508, 62.65444157957968 
162.4637234046563, -0.24580179297279228, 22.815225155749847, 108.77770920221705, 47.79522642364712, 62.65400146606894 
161.5427745399227, -0.1583717694567729, 22.815226714602336, 108.08657716179334, 47.83725219971605, 62.65352718401155 
160.62244879084105, -0.06472054959952249, 22.815227636254978, 107.39528764682059, 47.882306971691804, 62.65301881348847 
159.70278372827926, 0.03512337976891864, 22.81522776661272, 106.70382838840625, 47.93038498063591, 62.65247644069139 
158.78381571207618, 0.14112974261288247, 22.81522694244832, 106.01218686768216, 47.98148008201149, 62.65190015798099 
157.8655798246285, 0.2532665001371398, 22.815224991654787, 105.32035029866181, 48.03558574658855, 62.651290063948686 
156.94810980674293, 0.371499878452551, 22.815221733511763, 104.62830561094657, 48.092695061392156, 62.65064626348118 
156.03143799583117, 0.4957943973845022, 22.815216978965676, 103.93603943226961, 48.15280073069048, 62.64996886782843 
155.11559526651783, 0.6261129003450302, 22.815210530923206, 103.24353807086473, 48.2158950770202, 62.649257994674215 
154.20061097372042, 0.7624165851875062, 22.81520218455766, 102.55078749764812, 48.281970042245895, 62.648513768209554 
153.2865128982525, 0.9046650359608971, 22.8151917276279, 101.85777332819939, 48.351017188650474, 62.6477363192087 
152.37332719499068, 1.0528162554794942, 22.815178940809343, 101.1644808045285, 48.423027700053154, 62.646925785107406 
151.46107834363707, 1.2068266986226486, 22.815163598036666, 100.47089477661406, 48.49799238295149, 62.64608231008365 
150.5497891020998, 1.3666513062785142, 22.815145466857714, 99.77699968369843, 48.57590166768376, 62.64520604514003 
149.63948046250493, 1.532243539845214, 22.81512430879812, 99.08277953532388, 48.65674560960801, 62.644297148188734 
148.73017160984315, 1.7035554162028428, 22.81509987973623, 98.38821789209352, 48.740513890293386, 62.64335578413739 
147.8218798832483, 1.8805375430696374, 22.815071930287743, 97.69329784614067, 48.82719581872002, 62.642382124977 
146.91462073989348, 2.063139154656335, 22.815040206199658, 96.99800200128827, 48.916780332482695, 62.64137634987095 
146.00840772148456, 2.251308147533317, 22.815004448752923, 96.3023124528806, 49.00925599899418, 62.64033864524516 
145.10325242332212, 2.444991116625986, 22.81496439517324, 95.60621076726753, 49.104611016683094, 62.63926920487928 
144.19916446589536, 2.644133391255282, 22.814919779049678, 94.90967796092143, 49.202833216181915, 62.6381682299982 
143.29615146896552, 2.848679071141385, 22.814870330760186, 94.21269447916589, 49.30391006149961, 62.63703592936467 
142.39421902808812, 3.05857106229052, 22.814815777903824, 93.51524017449381, 49.40782865117406, 62.63587251937149 
141.49337069351887, 3.2737511126864507, 22.814755845738873, 92.81729428445242, 49.51457571939862, 62.6346782241343 
140.5936079514415, 3.4941598477104128, 22.814690257626346, 92.11883540907067, 49.624137637117364, 62.63345327558401 
139.6949302074505, 3.719736805215237, 22.814618735478387, 91.41984148780458, 49.73650041308301, 62.63219791355863 
138.79733477221768, 3.9504204701819443, 22.814541000210763, 90.72028977597334, 49.85164969487189, 62.63091238589491 
137.90081684926645, 4.1861483088894005, 22.81445677219907, 90.0201568206597, 49.96957076984944, 62.62959694851871 
137.0053695247749, 4.4268568025301835, 22.814365771737958, 89.31941843604527, 50.090248566079964, 62.628251865534715 
136.1109837593245, 4.672481480208705, 22.814267719502723, 88.61804967815094, 50.213667653174035, 62.62687740931425 
135.2176483815094, 4.9229569512599864, 22.814162337012736, 87.91602481895097, 50.33981224306673, 62.62547386058231 
134.3253500833183, 5.178216936830734, 22.814049347096105, 87.21331731982798, 50.46866619071955, 62.62404150850212 
133.43407341719984, 5.438194300666802, 22.813928474354835, 86.50989980433451, 50.60021299473883, 62.62258065075828 
132.54380079472025, 5.702821079054495, 22.813799445630075, 85.80574403022507, 50.73443579790296, 62.621091593637054 
131.6545124867225, 5.972028509865525, 22.813661990466628, 85.10082086072147, 50.87131738759069, 62.619574652104895 
130.76618662489366, 6.245747060658963, 22.81351584157628, 84.39510023497168, 51.01084019610251, 62.61803014988358 
129.87879920465, 6.523906455795845, 22.81336073529922, 83.68855113766182, 51.152986300866445, 62.616458419522935 
128.99232408924678, 6.806435702525624, 22.813196412063075, 82.98114156773767, 51.2977374245201, 62.61485980247008 
128.10673301502376, 7.093263116005918, 22.813022616838754, 82.27283850619133, 51.445074934859456, 62.613234649135514 
127.22199559769558, 7.384316343220314, 22.81283909959276, 81.56360788286601, 51.594979844645486, 62.61158331895538 
126.33807933960003, 7.679522385761596, 22.812645615735093, 80.85341454222943, 51.74743281125896, 62.60990618045 
125.4549496378185, 7.978807621450458, 22.812441926562446, 80.1422222080655, 51.90241413619319, 62.60820361127829 
124.57256979308477, 8.282097824762575, 22.812227799695826, 79.42999344702953, 52.05990376437464, 62.606475998288055 
123.69090101940199, 8.589318186039382, 22.81200300951225, 78.71668963101193, 52.21988128330056, 62.60472373756152 
122.80990245428917, 8.900393329460666, 22.811767337569847, 78.00227089825111, 52.3823259219824, 62.602947234456416 
121.92953116958377, 9.215247329759155, 22.811520573025717, 77.28669611313482, 52.54721654968347, 62.60114690364197 
121.04974218272827, 9.5338037276602, 22.811262513046238, 76.56992282462564, 52.714531674438824, 62.59932316912983 
120.17048846847446, 9.855985544031409, 22.810992963209, 75.85190722324397, 52.88424944134468, 62.597476464299696 
119.29172097094171, 10.18171529272976, 22.81071173789602, 75.13260409653856, 53.05634763060441, 62.5956072319194 
118.41338861597055, 10.510914992135522, 22.810418660677666, 74.41196678297159, 53.2308036553174, 62.593715924159326 
117.53543832371749, 10.843506175364515, 22.810113564686752, 73.68994712414218, 53.40759455899665, 62.59180300260092 
116.65781502144088, 11.179409899152304, 22.809796292982288, 72.96649541526841, 53.58669701280016, 62.589868938238986 
115.78046165643401, 11.51854675140543, 22.809466698902536, 72.24156035384517, 53.768087312460786, 62.587914211478065 
114.90331920906497, 11.860836857417135, 22.809124646406662, 71.51508898639047, 53.951741374898305, 62.58593931212197 
114.02632670589023, 12.206199884746125, 22.808770010404775, 70.7870266531901, 54.13763473449674, 62.583944739357186 
113.14942123281205, 12.55455504675925, 22.808402677075748, 70.05731693094562, 54.32574253902946, 62.58193100172913 
112.27253794825836, 12.905821104839786, 22.8080225441724, 69.32590157322738, 54.516039545213346, 62.57989861711187 
111.39561009636658, 13.259916369265412, 22.807629521313743, 68.59272044862934, 54.7085001138728, 62.57784811267053 
110.51856902016159, 13.616758698760504, 22.80722353026374, 67.85771147651852, 54.90309820469321, 62.575780024816765 
109.64134417472299, 13.976265498729541, 22.806804505196272, 67.12081056026737, 55.09980737054267, 62.57369489915684 
108.76386314034312, 14.338353718179356, 22.80637239294598, 66.38195151785219, 55.298600751339606, 62.571593290432226 
107.88605163568512, 14.702939845339385, 22.80592715324456, 65.64106600969644, 55.499451067442834, 62.56947576245282 
107.00783353095575, 15.069939901990479, 22.805468758942197, 64.89808346363273, 55.702330612539555, 62.56734288802252 
106.12913086111598, 15.439269436513857, 22.804997196213872, 64.1529309968518, 55.907211246005346, 62.56519524885694 
105.24986383915885, 15.810843515673495, 22.804512464750182, 63.405533334702106, 56.11406438470908, 62.56303343549339 
