# MEX_intpoint_lon [deg], MEX_intpoint_lat [deg], MEX_intpoint_angle [deg], TGO_intpoint_lon [deg], TGO_intpoint_lat [deg], TGO_intpoint_angle [deg] 
-104.83947795964694, 20.62565306929494, 22.84324179780027, 179.3470065392157, 58.76264246655147, 62.536813675068075 
-105.7318024621984, 20.231092275786388, 22.84389105634335, 178.56903423167344, 58.53117287967708, 62.53912917977338 
-106.62241701526837, 19.837681936024612, 22.844528169806434, 177.79444233721267, 58.3013058679758, 62.541438425827685 
-107.5114239026173, 19.445514396208278, 22.845152958661888, 177.02311749413917, 58.07307637234679, 62.54374071448164 
-108.39892375174075, 19.054681317415536, 22.845765258088495, 176.2549501181181, 57.846518736757886, 62.54603535419108 
-109.28501551483555, 18.665273698564363, 22.846364917990943, 175.489834264159, 57.6216667261982, 62.54832166081124 
-110.16979645088588, 18.277381898361483, 22.846951803001534, 174.7276674942136, 57.39855354357759, 62.55059895778169 
-111.05336210872461, 17.89109565620831, 22.847525792464197, 173.96835075016193, 57.17721184562705, 62.552866576303494 
-111.93580631093722, 17.506504112033607, 22.848086780400887, 173.21178823196715, 56.957673757849946, 62.55512385550756 
-112.8172211384851, 17.123695825025173, 22.848634675460385, 172.45788728078628, 56.739970888572124, 62.55737014261473 
-113.69769691593689, 16.74275879123436, 22.84916940084976, 171.70655826683083, 56.524134342135966, 62.55960479308735 
-114.57732219720504, 16.36378046002895, 22.849690894248422, 170.9577144817764, 56.31019473128144, 62.561827170772304 
-115.45618375169524, 15.986847749371657, 22.850199107705084, 170.2112720355291, 56.098182188754826, 62.564036648036 
-116.33436655078611, 15.61204705990289, 22.850694007517752, 169.46714975716074, 55.88812637818331, 62.56623260589059 
-117.21195375456423, 15.23946428780789, 22.851175574096924, 168.7252690998339, 55.68005650425239, 62.568414434112064 
-118.08902669874985, 14.869184836449701, 22.85164380181223, 167.9855540495428, 55.474001322220545, 62.570581531350065 
-118.96566488175594, 14.501293626750924, 22.85209869882265, 167.24793103750298, 55.26998914680392, 62.572733305229505 
-119.84194595183257, 14.135875106307983, 22.852540286890783, 166.5123288560292, 55.068047860462485, 62.57486917244392 
-120.7179456942548, 13.773013257223733, 22.852968601181228, 165.77867857774743, 54.86820492111711, 62.57698855884102 
-121.59373801852257, 13.412791602644376, 22.853383690043447, 165.0469134779923, 54.67048736932581, 62.579090899499896 
-122.46939494554563, 13.055293211989103, 22.853785614779394, 164.3169689602479, 54.47492183494579, 62.58117563880063 
-123.34498659479654, 12.700600704860951, 22.854174449396325, 163.58878248449523, 54.281534543306876, 62.583242230486256 
-124.22058117141931, 12.348796253629615, 22.85455028034501, 162.86229349833582, 54.09035132092044, 62.585290137716534 
-125.09624495329072, 11.999961584677491, 22.85491320624375, 162.1374433707653, 53.90139760074681, 62.58731883311478 
-125.9720422780354, 11.654177978302027, 22.855263337588696, 161.41417532847743, 53.714698427043224, 62.58932779880694 
-126.84803553000388, 11.311526267268682, 22.855600796450627, 160.6924343945828, 53.530278459813246, 62.591316526453554 
-127.72428512722931, 10.972086834009962, 22.855925716158858, 159.97216732963253, 53.34816197887734, 62.59328451727433 
-128.60084950838248, 10.635939606468032, 22.856238240972537, 159.25332257484098, 53.16837288758394, 62.595231282066216 
-129.47778511975386, 10.30316405257921, 22.856538525739808, 158.53585019740655, 52.990934716178984, 62.597156341214145 
-130.3551464022938, 9.973839173401071, 22.85682673554535, 157.81970183783383, 52.81587062485129, 62.599059224695466 
-131.23298577875025, 9.64804349488371, 22.857103045346697, 157.1048306591652, 52.64320340647042, 62.60093947207777 
-132.11135364094696, 9.325855058289259, 22.85736763959993, 156.39119129803245, 52.47295548903279, 62.602796632510405 
-132.9902983372509, 9.007351409264993, 22.857620711875054, 155.67873981744467, 52.30514893783144, 62.60463026470984 
-133.86986616028267, 8.692609585577696, 22.85786246446179, 154.96743366123115, 52.13980545736359, 62.60643993693926 
-134.75010133492793, 8.381706103518692, 22.858093107966134, 154.257231610062, 51.97694639299045, 62.60822522698217 
-135.63104600671264, 8.074716942991204, 22.85831286089833, 153.54809373897268, 51.81659273236224, 62.60998572211063 
-136.5127402306093, 7.771717531293798, 22.858521949252776, 152.8399813763213, 51.6587651066215, 62.61172101904815 
-137.39522196034517, 7.4727827256161055, 22.858720606080276, 152.13285706411193, 51.503483791396896, 62.61343072392742 
-138.27852703828654, 7.177986794265192, 22.858909071053514, 151.42668451961848, 51.350768707599485, 62.615114452242985 
-139.1626891859786, 6.8874033966433785, 22.859087590026025, 150.72142859824794, 51.2006394220327, 62.61677182879958 
-140.04773999542067, 6.601105562001206, 22.859256414585325, 150.017055257584, 51.05311514782719, 62.61840248765559 
-140.9337089211626, 6.319165666991295, 22.85941580160095, 149.3135315225541, 50.90821474471091, 62.62000607206255 
-141.82062327330775, 6.041655412052031, 22.859566012767733, 148.61082545166676, 50.76595671912484, 62.621582234400385 
-142.70850821151262, 5.768645796652489, 22.85970731414519, 147.9089061042673, 50.626359224193905, 62.62313063610909 
-143.5973867400736, 5.500207093432853, 22.859839975693344, 147.2077435087626, 50.489440059562874, 62.624650947616665 
-144.48727970419307, 5.236408821277536, 22.859964270805893, 146.50730863176818, 50.355216671105985, 62.62614284826376 
-145.37820578751885, 4.977319717361063, 22.860080475841066, 145.80757334813265, 50.22370615051955, 62.6276060262253 
-146.27018151105028, 4.723007708209779, 22.860188869650997, 145.10851041179612, 50.094925234805665, 62.629040178429136 
-147.16322123350693, 4.47353987982522, 22.860289733110047, 144.41009342744212, 49.96889030565565, 62.63044501047224 
-148.05733715325215, 4.228982446918333, 22.860383348642927, 143.71229682290368, 49.845617388740735, 62.63182023653433 
-148.9525393118675, 3.989400721306296, 22.860469999752937, 143.01509582228556, 49.72512215291819, 62.63316557928942 
-149.8488355994685, 3.7548590795270465, 22.860549970551265, 142.3184664197678, 49.607419909359976, 62.63448076981563 
-150.7462317618547, 3.525420929729208, 22.86062354528772, 141.62238535405515, 49.49252561061121, 62.63576554750309 
-151.64473140958157, 3.3011486778983845, 22.860691007883673, 140.9268300834413, 49.380453849585564, 62.637019659960586 
-152.54433602904186, 3.08210369348327, 22.860752641467673, 140.23177876145462, 49.27121885850419, 62.63824286292096 
-153.44504499563908, 2.8683462744880917, 22.86080872791451, 139.53721021305765, 49.164834507784775, 62.63943492014564 
-154.34685558913395, 2.6599356121004587, 22.860859547388237, 138.8431039113704, 49.06131430488702, 62.640595603328265 
-155.2497630112386, 2.4569297549261937, 22.860905377889768, 138.14943995489065, 48.96067139312067, 62.64172469199818 
-156.15376040553122, 2.259385572905368, 22.860946494809603, 137.45619904518523, 48.86291855042205, 62.642821973423295 
-157.0588388797563, 2.067358720986016, 22.86098317048643, 136.76336246502757, 48.768068188104756, 62.643887242513195 
-157.96498753057207, 1.8809036026339605, 22.861015673771977, 136.07091205695733, 48.6761323495901, 62.6449203017225 
-158.87219347079912, 1.7000733332595714, 22.861044269602804, 135.37883020223958, 48.58712270912266, 62.64592096095436 
-159.78044185921982, 1.5249197036436826, 22.86106921857965, 134.6870998002021, 48.501050570476046, 62.64688903746494 
-160.68971593296834, 1.355493143446644, 22.86109077655473, 133.99570424792918, 48.417926865653925, 62.64782435576852 
-161.59999704254642, 1.191842684885995, 22.861109194227694, 133.30462742029306, 48.33776215359113, 62.64872674754401 
-162.5112646894904, 1.0340159266690951, 22.861124716750684, 132.6138536503035, 48.26056661885941, 62.649596051542304 
-163.4234965667085, 0.882058998268018, 22.861137583343034, 131.9233677097572, 48.18635007038241, 62.65043211349555 
-164.3366686014971, 0.7360165246247543, 22.861148026916077, 131.23315479016992, 48.115121940164094, 62.65123478602791 
-165.25075500123742, 0.5959315913748989, 22.86115627370878, 130.54320048397463, 48.046891282034736, 62.652003928568206 
-166.16572830176443, 0.46184571067807667, 22.86116254293427, 129.8534907659698, 47.98166677041858, 62.65273940726475 
-167.08155941839053, 0.33379878774318433, 22.861167046438165, 129.16401197500235, 47.9194566991268, 62.65344109490241 
-167.99821769955702, 0.2118290881357087, 22.86116998836885, 128.47475079587107, 47.86026898017944, 62.65410887082194 
-168.91567098307718, 0.09597320595380779, 22.861171564860275, 127.78569424143576, 47.80411114265995, 62.654742620842235 
-169.83388565492479, -0.013733967041785427, 22.861171963727745, 127.09682963491977, 47.750990331605394, 62.65534223718507 
-170.75282671051266, -0.11725927126022162, 22.861171364176855, 126.4081445923918, 47.70091330693568, 62.65590761840298 
-171.67245781839523, -0.2145713079936004, 22.861169936526334, 125.71962700541546, 47.65388644242476, 62.65643866931007 
-172.5927413863208, -0.30564046693104385, 22.861167841944802, 125.03126502385426, 47.60991572471641, 62.656935300916174 
-173.51363862954912, -0.3904389523968, 22.86116523220206, 124.34304703882061, 47.569006752387615, 62.65739743036422 
-174.43510964134066, -0.4689408082381658, 22.86116224943508, 123.65496166575787, 47.53116473506177, 62.657824980871325 
-175.35711346551471, -0.5411219412923517, 22.861159025929034, 122.96699772764447, 47.49639449257413, 62.65821788167332 
-176.27960817096567, -0.6069601433647152, 22.861155683913776, 122.27914423831024, 47.46470045419174, 62.658576067972994 
-177.2025509280182, -0.6664351116548104, 22.861152335375866, 121.59139038585445, 47.43608665788969, 62.658899480892266 
-178.12589808649278, -0.7195284675706068, 22.86114908188652, 120.9037255161563, 47.410556749685796, 62.65918806742826 
-179.0496052553487, -0.7662237738756398, 22.8611460144456, 120.21613911646807, 47.388113983035105, 62.65944178041342 
-179.97362738376106, -0.8065065501184613, 22.86114321334203, 119.5286207990821, 47.368761218286004, 62.65966057847964 
179.10208115651454, -0.8403642862986042, 22.86114074803062, 118.84116028506232, 47.35250092219911, 62.65984442602665 
178.17756648764464, -0.8677864547282974, 22.86113867702559, 118.15374738803168, 47.3393351675302, 62.659993293194695 
177.25287514124537, -0.8887645200543474, 22.861137047810896, 117.46637199800728, 47.32926563267826, 62.66010715584124 
176.32805397309875, -0.9032919474102078, 22.861135896767486, 116.77902406527389, 47.3222936013994, 62.66018599552237 
175.40315007722387, -0.9113642086735309, 22.8611352491176, 116.09169358428854, 47.318419962587434, 62.66022979947846 
174.47821069947284, -0.9129787868104006, 22.86113511888609, 115.40437057760718, 47.31764521012172, 62.66023856062398 
173.55328315082343, -0.9081351782930421, 22.861135508879023, 114.71704507982562, 47.319969442782316, 62.660212277542094 
172.62841472054123, -0.8968348935837606, 22.86113641067932, 114.02970712152654, 47.325392364233196, 62.66015095448357 
171.7036525893853, -0.8790814556835446, 22.861137804659677, 113.34234671322453, 47.33391328307295, 62.66005460137002 
170.77904374303105, -0.8548803967498375, 22.861139660012604, 112.65495382930082, 47.34553111295336, 62.659923233801706 
169.8546348858823, -0.8242392527936133, 22.86114193479761, 111.96751839192005, 47.3602443727653, 62.659756873069774 
168.93047235544395, -0.7871675564718634, 22.86114457600547, 111.28003025492023, 47.3780511868915, 62.659555546172726 
168.00660203742342, -0.7436768279972084, 22.86114751963938, 110.59247918766826, 47.39894928552565, 62.65931928583744 
167.08306928172541, -0.6937805641919833, 22.86115069081315, 109.90485485887204, 47.42293600505712, 62.65904813054439 
166.1599188195013, -0.6374942257196042, 22.861154003865934, 109.21714682034131, 47.45000828852009, 62.65874212455722 
165.2371946814097, -0.574835222531507, 22.86115736249372, 108.52934449068783, 47.48016268610625, 62.65840131795642 
164.31494011723794, -0.5058228975727492, 22.861160659897116, 107.84143713895668, 47.51339535573969, 62.658025766677184 
163.393197517031, -0.4304785087947369, 22.86116377894541, 107.15341386817913, 47.54970206371249, 62.65761553255147 
162.47200833386427, -0.34882520952789975, 22.861166592356618, 106.46526359883818, 47.589078185379485, 62.65717068335366 
161.5514130083928, -0.2608880272718416, 22.86116896289323, 105.77697505223695, 47.63151870591037, 62.65669129285066 
160.63145089529948, -0.16669384096458406, 22.86117074357356, 105.0885367337602, 47.67701822109733, 62.65617744085527 
159.7121601917579, -0.06627135679652106, 22.86117177789823, 104.39993691601869, 47.72557093821595, 62.65562921328351 
158.79357786801694, 0.040348917361669956, 22.861171900091545, 103.7111636218661, 47.777170676937274, 62.65504670221536 
157.8757396002045, 0.1531346988445857, 22.86117093535757, 103.02220460727743, 47.83181087028851, 62.65443000595908 
156.95867970544035, 0.27205195831544465, 22.861168700150316, 102.33304734407767, 47.88948456565985, 62.65377922911866 
156.04243107933644, 0.39706494904895717, 22.861165002457962, 101.6436790025091, 47.9501844258547, 62.653094482664585 
155.1270251359562, 0.5281362372929413, 22.861159642100475, 100.954086433625, 48.01390273018029, 62.6523758840074 
154.21249175029214, 0.665226733625901, 22.861152411040422, 100.26425615149708, 48.080631375575706, 62.65162355707446 
153.29885920331358, 0.8082957252260761, 22.861143093706442, 99.57417431522356, 48.15036187777409, 62.6508376323889 
152.3861541296249, 0.9573009089660236, 22.861131467329063, 98.88382671072412, 48.223085372495646, 62.65001824715166 
151.47440146776677, 1.1121984252457715, 22.86111730228824, 98.19319873230738, 48.298792616667754, 62.64916554532544 
150.56362441318146, 1.2729428924767623, 22.86110036247238, 97.50227536399603, 48.37747398966867, 62.648279677721085 
149.65384437385623, 1.4394874421284856, 22.86108040564825, 96.81104116059406, 48.45911949459083, 62.64736080208578 
148.74508092864693, 1.6117837542494076, 22.861057183841147, 96.11948022847959, 48.543718759519614, 62.646409083193156 
147.83735178827772, 1.7897820933741804, 22.86103044372519, 95.42757620610669, 48.631261038823624, 62.64542469293501 
146.93067275900265, 1.9734313447293603, 22.860999927022856, 94.73531224419813, 48.72173521445173, 62.64440781041436 
146.02505770890602, 2.162679050650817, 22.860965370913387, 94.04267098561033, 48.81512979723266, 62.64335862203956 
145.1205185368129, 2.3574714471267844, 22.86092650844958, 93.34963454485168, 48.911432928172175, 62.642277321619794 
144.21706514377055, 2.557753500381966, 22.860883068982247, 92.65618448723328, 49.01063237974307, 62.64116411046086 
143.31470540705675, 2.7634689434194124, 22.860834778592004, 91.96230180763118, 49.11271555716285, 62.640019197461896 
142.41344515666322, 2.9745603124387063, 22.86078136052758, 91.26796690883779, 49.21766949965378, 62.638842799212156 
141.51328815419623, 3.1909689830508037, 22.860722535650243, 90.57315957947947, 49.325480881680036, 62.637635140088065 
140.6142360741308, 3.4126352062120073, 22.860658022883744, 89.87785897147529, 49.43613601415616, 62.636396452349985 
139.71628848734935, 3.639498143801707, 22.860587539669, 89.18204357701251, 49.549620845620986, 62.63512697623878 
138.81944284689186, 3.871495903771085, 22.860510802423228, 88.48569120501111, 49.66592096337119, 62.63382696007178 
137.9236944758384, 4.108565574792282, 22.860427527002596, 87.78877895705016, 49.78502159454813, 62.63249666033775 
137.02903655724324, 4.3506432603403065, 22.860337429168087, 87.09128320272681, 49.90690760717144, 62.63113634179099 
136.13546012603481, 4.59766411214276, 22.860240225053666, 86.39317955441682, 50.0315635111131, 62.629746277544065 
135.24295406279418, 4.849562362934954, 22.860135631636428, 85.69444284140542, 50.15897345900457, 62.62832674915889 
134.35150508932128, 5.106271358461346, 22.860023367207845, 84.99504708335448, 50.289121247070476, 62.626878046736174 
133.46109776589776, 5.367723588666646, 22.859903151845693, 84.29496546307138, 50.42199031588102, 62.62540046900292 
132.5717144901525, 5.633850718023403, 22.859774707885848, 83.5941702985426, 50.55756375101605, 62.62389432339739 
131.68333549743602, 5.904583614945289, 22.85963776039363, 82.89263301419403, 50.69582428363235, 62.62235992615177 
130.79593886260955, 6.179852380238999, 22.859492037633647, 82.19032411133766, 50.83675429092661, 62.620797602372164 
129.90950050315413, 6.459586374549832, 22.859337271537928, 81.48721313776277, 50.98033579648536, 62.619207686115345 
129.0239941835054, 6.743714244759815, 22.859173198171494, 80.78326865642762, 51.12655047051337, 62.61759052046257 
128.13939152052242, 7.032163949299458, 22.858999558194814, 80.07845821320572, 51.275379629931365, 62.61594645758976 
127.25566198999731, 7.3248627823375685, 22.85881609732254, 79.37274830363863, 51.426804238333915, 62.6142758588342 
126.37277293411641, 7.621737396816256, 22.85862256677796, 78.6661043386447, 51.580804905797784, 62.612579094756924 
125.49068956978556, 7.922713826300913, 22.858418723742485, 77.95849060913143, 51.737361888530806, 62.61085654520157 
124.6093749977326, 8.227717505617955, 22.858204331799598, 77.24987024945588, 51.896455088350734, 62.609108599348296 
123.7287902123054, 8.536673290255429, 22.857979161372807, 76.54020519967604, 52.05806405198358, 62.60733565576345 
122.84889411188517, 8.849505474504495, 22.85774299015678, 75.82945616653208, 52.222167970170005, 62.60553812244422 
121.96964350983829, 9.166137808321945, 22.857495603541402, 75.11758258309504, 52.388745676568256, 62.603716416858546 
121.09099314593432, 9.486493512896732, 22.857236795027813, 74.4045425670164, 52.557775646441634, 62.601870965979444 
120.21289569816068, 9.810495294905257, 22.85696636663628, 73.69029287730959, 52.72923599511765, 62.600002206314166 
119.3353017948693, 10.1380653594431, 22.85668412930509, 72.97478886959134, 52.903104476206074, 62.598110583927586 
118.45816002719467, 10.469125421622286, 22.85638990327998, 72.25798444970675, 53.07935847956205, 62.59619655445976 
117.58141696168764, 10.803596716825789, 22.8560835184937, 71.53983202565965, 53.257975028980056, 62.59426058313764 
116.70501715311293, 11.141400009612752, 22.85576481493509, 70.8202824577648, 53.438930779603766, 62.59230314478012 
115.82890315736546, 11.482455601269622, 22.85543364300712, 70.0992850069362, 53.622202015036535, 62.59032472379729 
114.95301554446365, 11.826683336004532, 22.855089863873765, 69.37678728102024, 53.807764644136036, 62.588325814182554 
114.07729291158458, 12.174002605783627, 22.854733349794618, 68.65273517908007, 53.99559419747617, 62.58630691949846 
113.2016718961111, 12.52433235381008, 22.85436398444751, 67.9270728335314, 54.18566582345862, 62.584268552855306 
112.3260871886669, 12.877591076647493, 22.853981663238155, 67.19974255002741, 54.37795428405516, 62.58221123688294 
111.45047154612118, 13.233696824991783, 22.853586293596646, 66.47068474498404, 54.57243395016166, 62.58013550369513 
110.57475580455126, 13.592567203096058, 22.853177795260365, 65.73983788063362, 54.76907879654305, 62.578041894846784 
109.69886889215758, 13.954119366855274, 22.852756100542866, 65.00713839748882, 54.967862396347876, 62.57593096128358 
108.82273784213174, 14.318270020558248, 22.852321154588477, 64.27252064409403, 55.16875791517021, 62.57380326328413 
107.94628780548582, 14.684935412316136, 22.85187291561207, 63.53591680393645, 55.37173810463485, 62.571659370394215 
107.06944206385711, 15.054031328177707, 22.851411355123858, 62.79725681938246, 55.57677529548158, 62.56949986135341 
106.19212204231083, 15.425473084942935, 22.850936458138815, 62.05646831250061, 55.783841390121886, 62.56732532401365 
105.31424732216904, 15.799175521687888, 22.85044822337044, 61.31347650262531, 55.992907854640904, 62.56513635524985 
