# MEX_intpoint_lon [deg], MEX_intpoint_lat [deg], MEX_intpoint_angle [deg], TGO_intpoint_lon [deg], TGO_intpoint_lat [deg], TGO_intpoint_angle [deg] 
-104.12703643244305, 20.46422479957485, 22.40990747099696, -154.69634045217694, 59.13813410701644, 62.52851387336112 
-105.03278584856925, 20.09189180102707, 22.41050376096165, -155.49513035755078, 58.91763525533306, 62.53070326551615 
-105.93683812249759, 19.7205830486564, 22.411089430497583, -156.29035854459858, 58.69861516808877, 62.532887064058016 
-106.8392862913114, 19.350388629399013, 22.411664313903646, -157.082138533016, 58.48110933873014, 62.53506460764759 
-107.74022202386155, 18.981397963809787, 22.412228258336306, -157.87058026522746, 58.26515263169867, 62.53723524136455 
-108.63973559361403, 18.613699823672718, 22.412781123829145, -158.6557902274979, 58.05077930080249, 62.5393983168919 
-109.53791585290351, 18.24738234885281, 22.41332278329699, -159.43787156674708, 57.838023006586674, 62.541553192693215 
-110.43485020846234, 17.88253306335222, 22.413853122524408, -160.21692420319215, 57.62691683274866, 62.54369923418245 
-111.33062459810543, 17.519238890536432, 22.414372040138865, -160.99304493894792, 57.41749330164367, 62.5458358138859 
-112.22532346845817, 17.15758616749798, 22.41487944756848, -161.76632756271286, 57.209784388922785, 62.54796231159712 
-113.11902975362477, 16.797660658527285, 22.415375268984615, -162.53686295066984, 57.003821537343924, 62.55007811452389 
-114.01182485470112, 16.43954756766249, 22.415859441229212, -163.30473916372893, 56.79963566979492, 62.55218261742797 
-114.90378862004542, 16.083331550291668, 22.4163319137272, -164.07004154123882, 56.59725720156512, 62.55427522275704 
-115.79499932622733, 15.729096723782511, 22.416792648384074, -164.8328527912918, 56.39671605190107, 62.55635534076962 
-116.68553365958367, 15.376926677116856, 22.41724161946872, -165.59325307774463, 56.198041654879525, 62.558422389652115 
-117.57546669831702, 15.026904479508248, 22.417678813481796, -166.35132010407548, 56.0012629696299, 62.560475795628676 
-118.46487189507964, 14.679112687983006, 22.41810422900979, -167.10712919419532, 55.80640848993667, 62.56251499306379 
-119.35382105999392, 14.33363335390631, 22.418517876565044, -167.86075337032804, 55.61350625325072, 62.56453942455741 
-120.24238434406509, 13.9905480284368, 22.4189197784119, -168.61226342807183, 55.42258384913733, 62.56654854103289 
-121.13063022295164, 13.649937766894158, 22.419309968379338, -169.36172800875116, 55.23366842718742, 62.568541801818036 
-122.01862548106216, 13.311883132026042, 22.4196884916602, -170.10921366916483, 55.04678670441711, 62.57051867471866 
-122.9064351959567, 12.976464196161942, 22.420055404597484, -170.85478494883375, 54.861964972179805, 62.57247863608562 
-123.79412272303455, 12.64376054224322, 22.420410774457885, -171.59850443484774, 54.67922910261383, 62.57442117087459 
-124.68174968049794, 12.313851263719748, 22.420754679192942, -172.34043282440862, 54.49860455464752, 62.576345772699426 
-125.56937593458625, 11.986814963305447, 22.42108720718812, -173.0806289851627, 54.32011637958276, 62.5782519438785 
-126.45705958508097, 11.662729750586271, 22.421408457000123, -173.8191500134134, 54.143789226277235, 62.58013919547484 
-127.34485695108766, 11.34167323847574, 22.421718537082917, -174.5560512903013, 53.96964734594427, 62.582007047329625 
-128.23282255710595, 11.023722538514882, 22.42201756550275, -175.29138653603607, 53.797714596589, 62.58385502808935 
-129.12100911940414, 10.708954255014893, 22.422305669642526, -176.02520786226182, 53.62801444709814, 62.585682675227304 
-130.00946753271936, 10.397444478042544, 22.422582985896042, -176.75756582263386, 53.46056998100033, 62.587489535058324 
-130.89824685731043, 10.089268775250055, 22.42284965935239, -177.48850946168315, 53.295403899913275, 62.589275162748216 
-131.78739430639297, 9.784502182553018, 22.423105843471085, -178.21808636204082, 53.132538526692876, 62.59103912231736 
-132.67695523399303, 9.48321919366155, 22.42335169974815, -178.94634269009327, 52.97199580829949, 62.59278098663872 
-133.56697312325812, 9.185493748471933, 22.42358739737386, -179.67332324013486, 52.81379731839528, 62.5945003374304 
-134.4574895752691, 8.89139922032791, 22.423813112882343, 179.6009285229165, 52.65796425968656, 62.59619676524311 
-135.3485442984007, 8.601008402162552, 22.424029029793758, 178.87637042217824, 52.50451746602403, 62.59786986944263 
-136.24017509828076, 8.31439349153391, 22.424235338249293, 178.15296152877698, 52.3534774042735, 62.59951925818732 
-137.13241786840317, 8.031626074569774, 22.424432234639685, 177.43066212307937, 52.204864175969576, 62.601144548400875 
-138.02530658145102, 7.752777108838765, 22.424619921227507, 176.70943365712435, 52.05869751876349, 62.60274536574084 
-138.91887328139114, 7.477916905167323, 22.42479860576404, 175.9892387182037, 51.914996807676516, 62.60432134456264 
-139.81314807640155, 7.20711510842465, 22.424968501100924, 175.27004099353977, 51.77378105616997, 62.605872127879444 
-140.70815913269834, 6.94044067729944, 22.425129824797306, 174.5518052360111, 51.63506891704165, 62.60739736731834 
-141.6039326693277, 6.677961863095141, 22.425282798722932, 173.83449723087895, 51.498878683159454, 62.60889672307264 
-142.50049295399313, 6.419746187572489, 22.4254276486577, 173.11808376346937, 51.36522828804117, 62.61036986385067 
-143.39786229998734, 6.165860419870612, 22.425564603888244, 172.40253258776724, 51.23413530629031, 62.61181646682126 
-144.29606106430057, 5.916370552540448, 22.425693896802034, 171.68781239588077, 51.105616953896615, 62.61323621755636 
-145.19510764697762, 5.671341776726702, 22.425815762479598, 170.97389278833649, 50.97969008841, 62.61462880997026 
-146.09501849179557, 5.430838456536968, 22.42593043828529, 170.26074424516597, 50.85637120899666, 62.61599394625668 
-146.9958080883357, 5.194924102639122, 22.426038163457278, 169.54833809774792, 50.735676456384766, 62.61733133682289 
-147.89748897552096, 4.963661345130688, 22.426139178697177, 168.8366465013701, 50.617621612708305, 62.61864070022205 
-148.80007174669151, 4.737111905726098, 22.42623372575995, 168.12564240847698, 50.502222101256095, 62.61992176308305 
-149.7035650562885, 4.515336569310461, 22.42632204704463, 167.4152995425712, 50.389492986133654, 62.621174260038735 
-150.60797562821492, 4.298395154910562, 22.426404385186192, 166.70559237273707, 50.27944897184462, 62.62239793365244 
-151.51330826594145, 4.086346486136417, 22.426480982649554, 165.99649608875663, 50.17210440279897, 62.62359253434315 
-152.41956586442183, 3.8792483611487234, 22.426552081325728, 165.28798657678934, 50.067473262754284, 62.624757820309256 
-153.32674942388047, 3.67715752220995, 22.42661792213098, 164.58004039558824, 49.96556917419672, 62.62589355745169 
-154.2348580655309, 3.480129624878827, 22.426678744609525, 163.87263475322607, 49.866405397667634, 62.62699951929573 
-155.14388904928205, 3.288219206909944, 22.426734786540052, 163.1657474843059, 49.76999483104197, 62.62807548691265 
-156.05383779348335, 3.1014796569222063, 22.426786283546907, 162.45935702763236, 49.676350008764175, 62.62912124884072 
-156.96469789675663, 2.9199631829016215, 22.426833468716143, 161.75344240432014, 49.585483101047124, 62.630136601006214 
-157.8764611619585, 2.7437207806053845, 22.4268765722172, 161.0479831963174, 49.49740591303952, 62.63112134664415 
-158.7891176223104, 2.5728022019359185, 22.426915820930557, 160.34295952532284, 49.41212988396697, 62.63207529621955 
-159.7026555697302, 2.4072559233547186, 22.42695143808187, 159.63835203207603, 49.32966608625156, 62.63299826734888 
-160.6170615853913, 2.247129114406991, 22.4269836428832, 158.93414185600074, 49.25002522461506, 62.63389008472208 
-161.53232057253135, 2.092467606429081, 22.42701265018161, 158.2303106151835, 49.173217635170296, 62.634750580025496 
-162.44841579152447, 1.9433158615114268, 22.427038670115714, 157.52684038666837, 49.09925328450493, 62.63557959186573 
-163.3653288972259, 1.799716941790197, 22.42706190778071, 156.82371368705086, 49.02814176876241, 62.63637696569447 
-164.28303997859027, 1.661712479141281, 22.427082562902118, 156.12091345335426, 48.95989231272378, 62.63714255373477 
-165.2015276005571, 1.5293426453502899, 22.427100829518878, 155.4184230241728, 48.89451376889476, 62.63787621490899 
-166.12076884819186, 1.4026461228320328, 22.427116895676072, 154.71622612106546, 48.8320146166015, 62.6385778147679 
-167.04073937306114, 1.2816600759725953, 22.427130943127775, 154.01430683018626, 48.772402961098976, 62.639247225422 
-167.96141344181495, 1.166420123166532, 22.4271431470504, 153.31264958413664, 48.71568653269532, 62.63988432547473 
-168.88276398694006, 1.0569603096207658, 22.42715367576687, 152.61123914402614, 48.661872685895524, 62.64048899995759 
-169.80476265964188, 0.9533130809955234, 22.427162690482056, 151.91006058172823, 48.610968398567614, 62.64106114026777 
-170.72737988480412, 0.8555092579514533, 22.427170345029783, 151.20909926231874, 48.56298027113435, 62.64160064410801 
-171.65058491796765, 0.7635780116701038, 22.42717678563175, 150.50834082668445, 48.51791452579328, 62.64210741542906 
-172.5743459042632, 0.6775468404133096, 22.42718215066873, 149.80777117428988, 48.4757770057679, 62.64258136437473 
-173.49862993922457, 0.597441547184556, 22.427186570464265, 149.10737644609154, 48.43657317459226, 62.643022407229736 
-174.42340313140207, 0.5232862185531518, 22.427190167081203, 148.40714300758748, 48.400308115431734, 62.64343046637053 
-175.34863066668885, 0.45510320469924365, 22.427193054131337, 147.70705743199247, 48.36698653044185, 62.64380547021892 
-176.274276874266, 0.3929131007348138, 22.42719533659844, 147.00710648352774, 48.33661274016744, 62.64414735319908 
-177.20030529406577, 0.33673472935266224, 22.427197110674804, 146.3072771008155, 48.30919068298392, 62.64445605569728 
-178.12667874564664, 0.28658512485187543, 22.427198463611678, 145.6075563803683, 48.284723914582564, 62.64473152402539 
-179.0533593983673, 0.24247951858487854, 22.427199473583656, 144.90793156016366, 48.26321560750128, 62.64497371038755 
-179.98030884274212, 0.20443132586723767, 22.427200209567225, 144.20839000329462, 48.24466855070225, 62.645182572849976 
179.09251183714412, 0.17245213438749096, 22.427200731233764, 143.5089191816871, 48.229085149198085, 62.6453580753147 
178.1651419902904, 0.14655169415004893, 22.427201088856904, 142.8095066598749, 48.216467423727096, 62.645500187496616 
177.23762132463224, 0.12673790898017528, 22.427201323234613, 142.1101400788238, 48.20681701047908, 62.64560888490411 
176.30998983222798, 0.11301682961532299, 22.427201465625934, 141.41080713979582, 48.20013516087227, 62.64568414882335 
175.3822877139159, 0.10539264840286512, 22.427201537702505, 140.71149558824527, 48.19642274138214, 62.645725966306266 
174.45455530358086, 0.10386769561952199, 22.427201551515044, 140.01219319773764, 48.195680233422536, 62.64573433016222 
173.52683299217236, 0.10844243742313428, 22.427201509474614, 139.31288775388356, 48.19790773327953, 62.64570923895328 
172.5991611516154, 0.11911547544269938, 22.427201404348924, 138.61356703827866, 48.203104952098194, 62.64565069699339 
171.67158005875703, 0.1358835480079263, 22.427201219273545, 137.914218812442, 48.211271215922295, 62.64555871435112 
170.74412981949115, 0.15874153301466248, 22.42720092777798, 137.21483080174292, 48.22240546578686, 62.64543330685613 
169.8168502932027, 0.18768245241796233, 22.427200493826778, 136.51539067931026, 48.23650625786319, 62.645274496109366 
168.88978101767216, 0.22269747833973103, 22.427199871875285, 135.815886049913, 48.25357176365613, 62.64508230949707 
167.96296113457808, 0.2637759407733649, 22.427199006940345, 135.11630443380585, 48.27359977025279, 62.64485678020813 
167.03642931573398, 0.3109053368631358, 22.42719783468554, 134.41663325052988, 48.29658768062205, 62.64459794725524 
166.11022369019184, 0.36407134173169237, 22.427196281521045, 133.71685980265957, 48.3225325139641, 62.644305855499795 
165.18438177234148, 0.4232578208246623, 22.427194264717876, 133.0169712594882, 48.351430906108575, 62.6439805556798 
164.2589403911308, 0.4884468437371247, 22.42719169253643, 132.31695464064146, 48.38327910996058, 62.64362210444179 
163.33393562052692, 0.5596186994827449, 22.42718846436911, 131.61679679961057, 48.41807299599287, 62.64323056437576 
162.40940271133306, 0.6367519131624059, 22.427184470896844, 130.91648440719553, 48.45580805278277, 62.64280600405351 
161.48537602447183, 0.7198232639854896, 22.427179594259346, 130.21600393484843, 48.49647938759213, 62.64234849807037 
160.561888965837, 0.8088078045936035, 22.42717370823882, 129.51534163790728, 48.54008172698865, 62.6418581270897 
159.6389739228124, 0.9036788816330467, 22.427166678456835, 128.81448353870962, 48.58660941750635, 62.641334977890956 
158.71666220254818, 1.0044081575194581, 22.42715836258437, 128.11341540957574, 48.63605642634314, 62.64077914342011 
157.79498397207817, 1.11096563333523, 22.427148610564252, 127.41212275565071, 48.68841634209324, 62.64019072284345 
156.87396820035545, 1.2233196727975877, 22.42713726484626, 126.71059079759344, 48.74368237551192, 62.63956982160361 
155.9536426022752, 1.341437027233111, 22.427124160634133, 126.00880445410179, 48.801847360309964, 62.6389165514786 
155.0340335847474, 1.4652828614922382, 22.42710912614443, 125.30674832426112, 48.862903753975125, 62.638231030643006 
154.11516619487313, 1.5948207807355392, 22.427091982876757, 124.60440666970433, 48.9268436386175, 62.637513383731566 
153.19706407027198, 1.730012858022087, 22.427072545895005, 123.9017633965699, 48.993658721836006, 62.63676374190526 
152.2797493915992, 1.8708196626288205, 22.427050624119396, 123.19880203724504, 49.063340337602355, 62.63598224291871 
151.36324283728484, 2.017200289028848, 22.42702602062867, 122.49550573187965, 49.13587944715953, 62.63516903119036 
150.44756354051816, 2.1691123864559203, 22.426998532972288, 121.79185720965654, 49.21126663993072, 62.634324257873644 
149.5327290484947, 2.3265121889816, 22.426967953491978, 121.08783876980321, 49.28949213443545, 62.63344808093015 
148.61875528393446, 2.489354546031704, 22.42693406965249, 120.38343226232894, 49.37054577920869, 62.63254066520393 
147.70565650887426, 2.657592953268132, 22.426896664380834, 119.67861906847146, 49.454417053718984, 62.63160218249728 
146.79344529072853, 2.831179583762841, 22.42685551641376, 118.97338008083564, 49.54109506928141, 62.63063281164725 
145.88213247060773, 3.0100653193908524, 22.426810400652883, 118.2676956832067, 49.63056856996097, 62.62963273860339 
144.97172713387596, 3.1941997823699486, 22.426761088527112, 117.56154573001976, 49.72282593346168, 62.6286021565058 
144.06223658292393, 3.3835313668755465, 22.426707348361756, 116.85490952546566, 49.817855171996904, 62.62754126576394 
143.1536663121272, 3.5780072706602657, 22.42664894575396, 116.14776580221405, 49.91564393313574, 62.62645027413565 
142.24601998495413, 3.777573526609008, 22.426585643953917, 115.44009269973203, 50.016179500620545, 62.62532939680631 
141.33929941318306, 3.982175034161602, 22.426517204251255, 114.73186774217683, 50.11944879515017, 62.62417885646776 
140.4335045381827, 4.191755590536878, 22.4264433863663, 114.02306781583964, 50.22543837512354, 62.622998883397095 
139.5286334142068, 4.406257921693403, 22.42636394884551, 113.31366914611729, 50.334134437337866, 62.62178971553507 
138.6246821936482, 4.625623712964364, 22.426278649460627, 112.60364727398641, 50.44552281763561, 62.62055159856328 
137.72164511419476, 4.849793639305596, 22.426187245611075, 111.8929770319547, 50.55958899149414, 62.61928478598119 
136.81951448782718, 5.078707395098162, 22.42608949472894, 111.18163251946251, 50.676318074551816, 62.617989539181444 
135.91828069159342, 5.312303723448865, 22.425985154686146, 110.46958707770611, 50.79569482306404, 62.61666612752403 
135.01793216009528, 5.550520444934383, 22.42587398420316, 109.75681326385407, 50.9177036342824, 62.61531482840915 
134.11845537961725, 5.793294485736958, 22.425755743258804, 109.04328282462568, 51.042328546750184, 62.6139359273479 
133.21983488382907, 6.040561905121954, 22.425630193500538, 108.32896666920008, 51.16955324050688, 62.61252971803144 
132.32205325098994, 6.2922579222101565, 22.42549709865469, 107.61383484142237, 51.29936103719438, 62.6110965023977 
131.42509110258283, 6.548316941999732, 22.425356224936213, 106.89785649127272, 51.43173490005698, 62.60963659069584 
130.52892710330613, 6.808672580595743, 22.425207341457163, 106.18099984556173, 51.56665743382756, 62.60815030154812 
129.6335379623501, 7.07325768960709, 22.42505022063368, 105.46323217781529, 51.70411088449125, 62.606637962008875 
128.73889843588563, 7.342004379673655, 22.4248846385907, 104.74451977730871, 51.84407713891848, 62.60509990762075 
127.84498133069368, 7.614844043088525, 22.42471037556392, 104.02482791721037, 51.98653772435825, 62.60353648246732 
126.95175750886426, 7.891707375482839, 22.424527216298586, 103.30412082179139, 52.13147380778266, 62.60194803922277 
126.05919589349556, 8.1725243965433, 22.42433495044439, 102.58236163265742, 52.27886619507308, 62.600334939197474 
125.16726347532499, 8.457224469734447, 22.424133372946176, 101.85951237395655, 52.4286953300382, 62.59869755238028 
124.27592532022621, 8.745736321000622, 22.42392228442973, 101.13553391651446, 52.5809412932537, 62.597036257476304 
123.38514457750799, 9.037988056424426, 22.423701491582253, 100.41038594084765, 52.735583800712895, 62.595351441940785 
122.49488248895352, 9.33390717882122, 22.423470807527014, 99.6840268990015, 52.892602202277565, 62.593643502008675 
121.60509839854123, 9.633420603250839, 22.42323005219171, 98.95641397515982, 53.05197547991709, 62.59191284271916 
120.71574976279155, 9.936454671430715, 22.422979052669845, 98.22750304496849, 53.21368224572459, 62.59015987793588 
119.82679216168687, 10.242935165035687, 22.42271764357497, 97.497248633515, 53.377700739697204, 62.58838503036211 
118.93817931011561, 10.552787317872895, 22.42244566738705, 96.76560387190202, 53.544008827267945, 62.586588731550584 
118.0498630697953, 10.86593582692137, 22.42216297479059, 96.03252045235179, 53.71258399657565, 62.58477142190835 
117.16179346163263, 11.182304862228227, 22.421869425004115, 95.29794858177506, 53.883403355459045, 62.582933550695785 
116.27391867848372, 11.501818075655397, 22.42156488610042, 94.56183693373544, 54.056443628160544, 62.58107557602041 
115.38618509828139, 11.824398608472238, 22.42124923531734, 93.82413259873815, 54.23168115172448, 62.57919796482464 
114.4985372975002, 12.149969097791669, 22.42092235935848, 93.08478103276843, 54.40909187207407, 62.57730119286755 
113.6109180649372, 12.47845168184871, 22.420584154683525, 92.34372600400314, 54.58865133975063, 62.575385744700924 
112.72326841578708, 12.80976800412252, 22.420234527787876, 91.6009095376149, 54.77033470529785, 62.57345211363861 
111.83552760600023, 13.143839216304015, 22.419873395470916, 90.85627185858662, 54.95411671427296, 62.57150080171993 
110.94763314691328, 13.480585980113526, 22.41950068509291, 90.10975133245005, 55.139971701866486, 62.56953231966632 
110.05952082014996, 13.81992846797376, 22.41911633481991, 89.36128440385937, 55.32787358711034, 62.567547186831604 
109.17112469279436, 14.16178636254535, 22.418720293856488, 88.61080553290842, 55.517795866654176, 62.565545931145365 
108.28237713284456, 14.506078855133714, 22.41831252266581, 87.85824712909533, 55.70971160808844, 62.56352908904955 
107.39320882496104, 14.85272464297714, 22.417892993176963, 87.10353948283765, 55.903593442791355, 62.56149720542832 
106.50354878652963, 15.201641925427968, 22.417461688979028, 86.34661069443499, 56.09941355827669, 62.55945083353046 
105.6133243840661, 15.552748399039576, 22.417018605501696, 85.58738660037626, 56.29714369001733, 62.55739053488529 
104.72246134999433, 15.905961251574187, 22.41656375018229, 84.8257906968824, 56.49675511271903, 62.555316879210835 
