# MEX_intpoint_lon [deg], MEX_intpoint_lat [deg], MEX_intpoint_angle [deg], TGO_intpoint_lon [deg], TGO_intpoint_lat [deg], TGO_intpoint_angle [deg] 
-104.22287174341385, 20.48653141462865, 22.46692861579576, -158.0720387578778, 59.154144115121916, 62.52851081883988 
-105.1268896758201, 20.111223191296105, 22.467531858120683, -158.8717123129923, 58.93412631520695, 62.530694762194585 
-106.02920754452525, 19.73695567004327, 22.46812428378632, -159.66781724183764, 58.71558189777636, 62.53287313976075 
-106.92991962614418, 19.36381927058567, 22.46870572527101, -160.46046703266651, 58.4985463762086, 62.53504529181754 
-107.82911879170435, 18.99190374300861, 22.469276028148652, -161.24977160670815, 58.283054633735816, 62.537210565030016 
-108.72689648044047, 18.621298186081884, 22.46983505110824, -162.03583743848867, 58.0691409418195, 62.53936831263336 
-109.62334267496612, 18.25209106478345, 22.470382665957697, -162.81876767191247, 57.85683897752795, 62.54151789460957 
-110.51854587768898, 17.884370226995937, 22.47091875761178, -163.59866223222542, 57.64618183996143, 62.54365867785715 
-111.41259308834873, 17.51822291934179, 22.47144322406439, -164.37561793398626, 57.43720206576983, 62.54579003635269 
-112.30556978256259, 17.153735802125315, 22.471955976345235, -165.14972858516975, 57.229931643805024, 62.54791135130556 
-113.19755989127451, 16.79099496335142, 22.472456938460905, -165.9210850875283, 57.02440202894815, 62.550022011304605 
-114.08864578101111, 16.430085931793574, 22.472946047320573, -166.68977553333573, 56.82064415515056, 62.55212141245782 
-114.97890823485614, 16.071093689084513, 22.473423252646413, -167.45588529863667, 56.61868844772487, 62.554208958524235 
-115.86842643406392, 15.714102680805425, 22.473888516868925, -168.21949713312458, 56.41856483492129, 62.556284061038546 
-116.75727794023882, 15.359196826551083, 22.474341815007232, -168.98069124676735, 56.220302758822555, 62.55834613942827 
-117.64553867801675, 15.006459528949572, 22.474783134534665, -169.73954539329932, 56.02393118558926, 62.56039462112351 
-118.53328291819129, 14.655973681617388, 22.47521247522978, -170.4961349506951, 55.82947861508595, 62.56242894165963 
-119.42058326123454, 14.30782167603162, 22.4756298490131, -171.25053299873792, 55.6369730899169, 62.56444854477231 
-120.30751062116994, 13.962085407302979, 22.476035279769643, -172.00281039379325, 55.44644220389936, 62.56645288248583 
-121.19413420976112, 13.618846278834273, 22.476428803157745, -172.75303584089494, 55.257913110000345, 62.56844141519389 
-122.0805215209872, 13.278185205851125, 22.476810466404274, -173.501275963248, 55.071412527762405, 62.570413611733684 
-122.96673831578238, 12.940182617792379, 22.47718032808657, -174.24759536925046, 54.886966750242166, 62.5723689494529 
-123.85284860702217, 12.604918459549742, 22.477538457901485, -174.99205671713148, 54.70460165048479, 62.57430691426985 
-124.73891464474727, 12.272472191547262, 22.47788493642175, -175.73472077730239, 54.52434268755612, 62.5762270007269 
-125.62499690161965, 11.942922788652911, 22.478219854840027, -176.47564649251217, 54.346214912153485, 62.578128712037355 
-126.51115405861253, 11.616348737916013, 22.478543314701103, -177.21489103589727, 54.17024297181527, 62.58001156012576 
-127.3974429909414, 11.29282803512564, 22.478855427622452, -177.95250986701188, 53.996451115748265, 62.581875065661784 
-128.2839187542483, 10.972438180186971, 22.479156315003614, -178.6885567859219, 53.824863199291315, 62.583718758087834 
-129.17063457105712, 10.65525617131391, 22.4794461077248, -179.42308398544395, 53.655502688032534, 62.58554217564075 
-130.05764181752247, 10.341358498038135, 22.47972494583511, 179.84385789839428, 53.48839266159721, 62.587344865367115 
-130.94499001050025, 10.030821133036252, 22.479992978230758, 179.11221973759612, 53.32355581712228, 62.58912638313333 
-131.83272679497153, 9.723719522778833, 22.480250362323858, 178.3819538650692, 53.161014472432825, 62.59088629362939 
-132.72089793185754, 9.420128577006432, 22.480497263701963, 177.65301402906007, 53.00079056893543, 62.59262417036742 
-133.60954728626595, 9.120122657040094, 22.480733855779146, 176.92535534908322, 52.84290567424269, 62.594339595675116 
-134.4987168162146, 8.823775562935412, 22.48096031943881, 176.19893427328074, 52.68738098454237, 62.5960321606834 
-135.3884465618812, 8.531160519491321, 22.48117684266886, 175.4737085371497, 52.5342373267243, 62.59770146530963 
-136.27877463543268, 8.24235016112694, 22.48138362018963, 174.74963712357845, 52.3834951602777, 62.59934711823567 
-137.1697372114892, 7.957416515641836, 22.481580853075183, 174.0266802241346, 52.23517457897105, 62.60096873688128 
-138.06136851828387, 7.676430986877252, 22.481768748368292, 173.3047992015493, 52.08929531232594, 62.60256594737325 
-138.95370082957942, 7.399464336298016, 22.481947518689882, 172.5839565533449, 51.945876726896365, 62.60413838451005 
-139.8467644574073, 7.126586663517402, 22.482117381843118, 171.86411587655596, 51.80493782736412, 62.605685691722535 
-140.74058774569693, 6.857867385789175, 22.482278560413, 171.14524183349366, 51.6664972574606, 62.6072075210305 
-141.6351970648646, 6.593375216493768, 22.482431281361748, 170.42730011850773, 51.5305733007252, 62.60870353299597 
-142.5306168074328, 6.333178142647819, 22.482575775620624, 169.71025742570075, 51.39718388110998, 62.61017339667248 
-143.42686938475396, 6.07734340146875, 22.482712277678704, 168.99408141755092, 51.266346563439654, 62.6116167895516 
-144.32397522491152, 5.825937456028621, 22.48284102516919, 168.27874069440296, 51.13807855373611, 62.61303339750578 
-145.2219527718741, 5.579025970034027, 22.482962258453643, 167.5642047647865, 51.012396699416186, 62.61442291472878 
-146.12081848597688, 5.336673781771291, 22.483076220204964, 166.85044401652425, 50.88931748937094, 62.61578504367323 
-147.02058684580717, 5.098944877258649, 22.483183154989433, 166.13742968859302, 50.768857053934425, 62.61711949498569 
-147.9212703515671, 4.865902362649973, 22.483283308848385, 165.4251338437029, 50.65103116475015, 62.618425987439515 
-148.8228795299903, 4.637608435936647, 22.483376928880265, 164.7135293415602, 50.53585523454233, 62.619704247865634 
-149.7254229408834, 4.414124357997115, 22.48346426282338, 164.0025898127828, 50.42334431679958, 62.620954011081594 
-150.62890718536627, 4.195510423045767, 22.483545558640003, 163.29228963343581, 50.31351310537791, 62.62217501981853 
-151.53333691587937, 3.9818259285354367, 22.48362106410243, 162.58260390015872, 50.20637593403001, 62.62336702464747 
-152.43871484802727, 3.7731291445699955, 22.483691026381415, 161.87350840585495, 50.10194677586715, 62.62452978390368 
-153.3450417743219, 3.569477282885878, 22.483755691637622, 161.16497961591648, 50.000239242760465, 62.62566306361048 
-154.25231657988857, 3.370926465463524, 22.48381530461657, 160.45699464495797, 49.90126658468742, 62.62676663740194 
-155.16053626019237, 3.177531692831739, 22.48387010824771, 159.74953123403424, 49.80504168902967, 62.62784028644524 
-156.06969594083964, 2.9893468121300892, 22.48392034324798, 159.04256772831758, 49.711577079827826, 62.62888379936242 
-156.9797888995042, 2.8064244849961306, 22.483966247730535, 158.33608305521182, 49.620884916999096, 62.629896972152004 
-157.89080659002414, 2.628816155346059, 22.484008056819125, 157.6300567028805, 49.532976995522596, 62.630879608110696 
-158.80273866870857, 2.4565720171188885, 22.484046002268553, 156.92446869916836, 49.447864744598135, 62.63183151775514 
-159.71557302288986, 2.2897409820555983, 22.484080312091795, 156.21929959089553, 49.365559226782956, 62.63275251874426 
-160.62929580174955, 2.128370647585924, 22.484111210194285, 155.51453042350445, 49.28607113711163, 62.633642435801775 
-161.54389144944074, 1.972507264896506, 22.484138916015706, 154.81014272104144, 49.209410802203436, 62.63450110064004 
-162.45934274052317, 1.8221957072548065, 22.484163644180065, 154.1061184664544, 49.13558817936211, 62.63532835188429 
-163.37563081772032, 1.677479438663798, 22.484185604154067, 153.4024400821893, 49.06461285567174, 62.636124034998446 
-164.29273523200106, 1.5384004829228914, 22.48420499991474, 152.69909041106905, 48.996494047093464, 62.63688800221187 
-165.21063398498043, 1.4049993931705533, 22.484222029626334, 151.99605269743878, 48.93124059756654, 62.637620112447784 
-166.12930357362757, 1.2773152219839918, 22.484236885327135, 151.29331056856194, 48.86886097811787, 62.63832023125324 
-167.04871903726107, 1.1553854921109048, 22.48424975262661, 150.59084801625227, 48.809363285983466, 62.63898823073091 
-167.96885400680304, 1.0392461679076286, 22.484260810413225, 149.88864937872847, 48.75275524374532, 62.63962398947278 
-168.88968075625743, 0.9289316275571481, 22.484270230573262, 149.18669932267667, 48.699044198487215, 62.64022739249597 
-169.81117025636834, 0.8244746361392669, 22.48427817772122, 148.48498282550796, 48.64823712097233, 62.640798331180775 
-170.73329223040744, 0.7259063196237184, 22.484284808941872, 147.78348515779874, 48.6003406048459, 62.64133670321106 
-171.6560152120311, 0.6332561398554107, 22.48429027354464, 147.0821918659012, 48.55536086586561, 62.64184241251714 
-172.57930660514032, 0.5465518705989603, 22.48429471283027, 146.38108875471198, 48.513303741162545, 62.64231536922147 
-173.5031327456692, 0.46581957470737106, 22.484298259870418, 145.68016187058797, 48.474174688535065, 62.6427554895867 
-174.4274589652194, 0.3910835824774031, 22.484301039300256, 144.9793974843982, 48.43797878577817, 62.64316269596702 
-175.35224965645176, 0.3223664712511672, 22.48430316712447, 144.27878207470056, 48.40472073005041, 62.64353691676212 
-176.2774683401389, 0.25968904632068257, 22.484304750536815, 143.5783023110338, 48.37440483728047, 62.64387808637459 
-177.20307773377542, 0.20307032318881793, 22.48430588775357, 142.87794503731374, 48.34703504161543, 62.64418614516994 
-178.12903982163684, 0.152527511236561, 22.484306667861045, 142.17769725532494, 48.322614894912185, 62.644461039440486 
-179.0553159261723, 0.10807599884282011, 22.48430717067737, 141.4775461082973, 48.30114756627395, 62.64470272137212 
-179.9818667806098, 0.06972933999930606, 22.484307466628724, 140.7774788645587, 48.282635841633045, 62.64491114901448 
179.09134739735165, 0.037499242458583076, 22.484307616640233, 140.07748290125463, 48.267082123381385, 62.645086286255015 
178.16436683089267, 0.011395557449561484, 22.484307672041574, 139.37754568812528, 48.25448843004971, 62.64522810279592 
177.23723210860243, -0.008573729010017166, 22.48430767448753, 138.677654771332, 48.244856396036575, 62.645336574135136 
176.3099841083225, -0.022402503178919744, 22.484307655893524, 137.97779775732369, 48.238187271387915, 62.645411681550776 
175.38266392044753, -0.030086529015086398, 22.484307638386223, 137.27796229673515, 48.234481921627896, 62.64545341208911 
174.45531277082492, -0.031623451939798784, 22.48430763426934, 136.57813606830845, 48.23374082764138, 62.64546175855629 
173.52797194339908, -0.027012800932493485, 22.48430764600453, 135.87830676282894, 48.23596408560861, 62.64543671951378 
172.60068270274573, -0.016255988950027035, 22.48430766620771, 135.17846206706764, 48.24115140699211, 62.64537829927744 
171.67348621664277, 0.0006436883308321029, 22.48430767766034, 134.47858964772175, 48.24930211857595, 62.64528650792021 
170.7464234788242, 0.023681055443938993, 22.484307653336163, 133.77867713534414, 48.260415162557145, 62.64516136127868 
169.81953523206218, 0.052849061728884754, 22.48430755644295, 133.0787121082545, 48.27448909668908, 62.64500288096307 
168.89286189172157, 0.08813878757725233, 22.484307340479493, 132.3786820764226, 48.29152209447636, 62.644811094371164 
167.9664434699289, 0.12953945231191177, 22.484306949307484, 131.6785744653158, 48.31151194542069, 62.64458603470551 
167.04031950049506, 0.17703842367645634, 22.484306317238595, 130.97837659970202, 48.33445605531675, 62.64432774099452 
166.1145289647282, 0.23062122890740952, 22.484305369136077, 130.27807568739925, 48.36035144659756, 62.64403625811687 
165.1891102182686, 0.29027156735728205, 22.48430402053134, 129.57765880296256, 48.389194758727996, 62.64371163682959 
164.2641009190748, 0.35597132463232334, 22.484302177754934, 128.87711287130026, 48.420982248645274, 62.643353933799425 
163.3395379566826, 0.42770058820444923, 22.484299738081873, 128.17642465120886, 48.455709791245226, 62.64296321163753 
162.4154573828567, 0.5054376644532378, 22.48429658989126, 127.47558071881845, 48.49337287991258, 62.64253953893762 
161.4918943437459, 0.5891590970896031, 22.484292612839756, 126.77456745093794, 48.53396662709387, 62.642082990317235 
160.56888301364873, 0.6788396869095977, 22.484287678048847, 126.07337100829074, 48.57748576491087, 62.64159364646196 
159.6464565304885, 0.7744525128232418, 22.484281648305586, 125.3719773186304, 48.623924645812764, 62.64107159417304 
158.72464693309138, 0.8759689541001071, 22.484274378276528, 124.6703720597258, 48.67327724326479, 62.64051692641739 
157.80348510035236, 0.9833587137706791, 22.484265714734658, 123.96854064220473, 48.725537152471105, 62.639929742381 
156.8830006923678, 1.0965898431197427, 22.48425549679881, 123.26646819224501, 48.78069759112953, 62.639310147524434 
155.96322209360534, 1.215628767205718, 22.484243556185643, 122.56413953410133, 48.838751400215266, 62.63865825364141 
155.0441763581741, 1.3404403113377792, 22.484229717473344, 121.86153917245574, 48.89969104479118, 62.63797417891951 
154.1258891572504, 1.4709877284407045, 22.484213798377112, 121.15865127457937, 48.963508614841494, 62.63725804800322 
153.2083847287068, 1.6072327272359284, 22.484195610035858, 120.45545965229266, 49.030195826125805, 62.63650999205926 
152.2916858289831, 1.7491355011658347, 22.4841749573098, 119.75194774371013, 49.0997440210504, 62.63573014884391 
151.3758136872321, 1.896654757987363, 22.484151639088537, 119.04809859475668, 49.17214416955313, 62.63491866277194 
150.46078796176295, 2.0497477499602645, 22.484125448609227, 118.34389484043992, 49.24738686999866, 62.63407568498771 
149.54662669879903, 2.2083703045547933, 22.484096173784362, 117.63931868586415, 49.32546235008002, 62.633201373437394 
148.63334629355825, 2.372476855603289, 22.484063597538864, 116.93435188697019, 49.406360467722834, 62.63229589294285 
147.72096145365782, 2.5420204748203226, 22.484027498155914, 116.22897573098456, 49.490070711988, 62.63135941527651 
146.80948516483716, 2.716952903615966, 22.48398764963105, 115.52317101656134, 49.5765822039687, 62.630392119237435 
145.898928658986, 2.8972245851276535, 22.483943822034217, 114.81691803359857, 49.66588369767735, 62.629394190728185 
144.98930138445868, 3.0827846963962884, 22.483895781879074, 114.11019654271159, 49.757963580917846, 62.62836582283234 
144.08061097864862, 3.273581180613634, 22.48384329249937, 113.40298575434292, 49.852809876138394, 62.62730721589247 
143.1728632427912, 3.4695607793687437, 22.483786114431453, 112.69526430748999, 49.95041024126014, 62.62621857758847 
142.26606211895754, 3.670669064822701, 22.483724005802905, 111.98701024802887, 50.050751970476355, 62.62510012301599 
141.3602096691967, 3.876850471742254, 22.4836567227264, 111.27820100661275, 50.15382199501688, 62.62395207476461 
140.45530605677826, 4.088048329324715, 22.48358401969845, 110.56881337612242, 50.25960688387254, 62.62277466299599 
139.55134952948316, 4.304204892748025, 22.483505650002478, 109.85882348864513, 50.368092844473736, 62.621568125521215 
138.64833640488658, 4.525261374382062, 22.4834213661157, 109.14820679195697, 50.479265723317255, 62.62033270787767 
137.7462610575724, 4.7511579745990655, 22.48333092011922, 108.43693802548353, 50.59311100653558, 62.61906866340488 
136.84511590821634, 4.981833912123269, 22.483234064110864, 107.72499119571175, 50.70961382040198, 62.61777625331934 
135.94489141447045, 5.2172274538621775, 22.483130550620196, 107.01233955102477, 50.82875893176529, 62.61645574678786 
135.0455760635812, 5.457275944163941, 22.483020133025075, 106.29895555593144, 50.95053074840743, 62.6151074209995 
134.14715636666966, 5.701915833447979, 22.482902565969436, 105.58481086465927, 51.07491331931679, 62.61373156123579 
133.24961685460087, 5.951082706158176, 22.482777605781422, 104.86987629407973, 51.20189033487033, 62.612328460938855 
132.352940075369, 6.204711307990674, 22.482645010891574, 104.15412179593251, 51.33144512691693, 62.61089842177754 
131.45710659292362, 6.462735572350495, 22.482504542250464, 103.43751642831474, 51.46356066875433, 62.60944175371111 
130.56209498736087, 6.725088645994123, 22.482355963745096, 102.72002832639892, 51.59821957499166, 62.60795877505024 
129.66788185640567, 6.991702913817341, 22.482199042613736, 102.00162467234237, 51.73540410128937, 62.60644981251549 
128.7744418181083, 7.262510022750488, 22.4820335498584, 101.28227166434915, 51.875096143968065, 62.60491520129256 
127.88174751468225, 7.537440904725474, 22.48185926065469, 100.56193448484396, 52.017277239477295, 62.60335528508442 
126.98976961740907, 7.816425798681763, 22.48167595475819, 99.84057726771567, 52.16192856371524, 62.60177041616011 
126.09847683253805, 8.099394271580763, 22.481483416907057, 99.11816306458621, 52.309030931189874, 62.60016095539978 
125.2078359081108, 8.386275238400561, 22.4812814372203, 98.39465381005942, 52.45856479401152, 62.598527272336206 
124.31781164164131, 8.676996981085471, 22.481069811590995, 97.67001028590143, 52.610510240707015, 62.596869745191874 
123.4283668885862, 8.971487166427043, 22.480848342074207, 96.9441920841032, 52.7648469948443, 62.59518876091241 
122.53946257154013, 9.269672862855687, 22.48061683726888, 96.21715756877335, 52.92155441345716, 62.59348471519521 
121.65105769009642, 9.571480556124149, 22.480375112693295, 95.48886383680733, 53.08061148525799, 62.59175801251366 
120.76310933131448, 9.876836163866528, 22.480122991153582, 94.75926667727653, 53.241996828627364, 62.590009066136616 
119.87557268073945, 10.185665049018288, 22.479860303104772, 94.02832052947952, 53.40568868936744, 62.588238298143025 
118.98840103392294, 10.497892032085348, 22.479586887003933, 93.29597843959405, 53.571664938206915, 62.58644613943129 
118.10154580839793, 10.813441402251799, 22.47930258965493, 92.56219201586725, 53.73990306804384, 62.58463302972335 
117.21495655606435, 11.132236927318127, 22.479007266544272, 91.82691138227803, 53.91038019091239, 62.582799417563635 
116.32858097594587, 11.454201862463774, 22.478700782167696, 91.0900851306037, 54.08307303465943, 62.580945760311934 
115.44236492728429, 11.779258957829263, 22.478383010346985, 90.35166027081989, 54.25795793931513, 62.579072524130964 
114.55625244294026, 12.107330464915545, 22.478053834536635, 89.61158217976046, 54.435010853142586, 62.57718018396779 
113.67018574307633, 12.438338141799404, 22.47771314811988, 88.869794547961, 54.614207328349465, 62.5752692235291 
112.78410524910095, 12.772203257165787, 22.477360854693767, 88.12623932460671, 54.79552251644479, 62.57334013525066 
111.8979495978594, 13.108846593159358, 22.476996868342862, 87.38085666050324, 54.97893116322276, 62.57139342026005 
111.011655656061, 13.44818844705935, 22.47662111390116, 86.63358484898484, 55.16440760335511, 62.569429588333186 
110.12515853493923, 13.79014863178314, 22.476233527201888, 85.88436026467251, 55.35192575457208, 62.56744915784417 
109.2383916051457, 14.134646475225605, 22.475834055314845, 85.13311729999123, 55.54145911141184, 62.565452655708505 
108.35128651188529, 14.481600818442871, 22.47542265677102, 84.37978829935192, 55.73298073851688, 62.563440617319586 
107.46377319030667, 14.830930012690287, 22.474999301773977, 83.62430349090188, 55.92646326345461, 62.56141358647807 
106.57577988116665, 15.182551915326286, 22.474563972397892, 82.8665909157429, 56.1218788690393, 62.55937211531458 
105.68723314679546, 15.53638388459475, 22.474116662771937, 82.10657635451493, 56.3191992851302, 62.55731676420496 
104.79805788739485, 15.892342773300507, 22.473657379250632, 81.34418325123848, 56.51839577988046, 62.55524810167898 
