# MEX_intpoint_lon [deg], MEX_intpoint_lat [deg], MEX_intpoint_angle [deg], TGO_intpoint_lon [deg], TGO_intpoint_lat [deg], TGO_intpoint_angle [deg] 
-103.91285140926739, 20.41383412999909, 22.28402293831488, -147.56972890744404, 59.02702181213897, 62.529787376903045 
-104.82238468704705, 20.04812420790736, 22.28460390207922, -148.36234889852858, 58.803203567918686, 62.5320145732738 
-105.73022858957756, 19.683402388897793, 22.285174673788465, -149.15145723460893, 58.58090136057187, 62.53423598105711 
-106.63647339628719, 19.319757986191004, 22.285735091761026, -149.93716756673925, 58.3601505350793, 62.53645092769013 
-107.5412081000847, 18.95727965460972, 22.286285006653372, -150.71958990111978, 58.14098581591867, 62.538658747259305 
-108.44452037825044, 18.596055406639078, 22.28682428147962, -151.4988307255733, 57.92344132537585, 62.54085878068769 
-109.34649656478857, 18.236172627797625, 22.28735279161618, -152.27499313132273, 57.70755060083524, 62.543050375914724 
-110.24722162411615, 17.8777180912819, 22.287870424791514, -153.04817693022525, 57.49334661109842, 62.54523288806799 
-111.14677912597399, 17.52077797184843, 22.288377081061228, -153.81847876761853, 57.280861771777644, 62.54740567962741 
-112.04525122145053, 17.165437858900663, 22.28887267276824, -154.5859922309321, 57.070127959808794, 62.54956812058163 
-112.94271862001975, 16.811782768748976, 22.289357124488472, -155.35080795421652, 56.86117652712536, 62.55171958857633 
-113.83926056750042, 16.459897156015053, 22.28983037296191, -156.11301371873853, 56.65403831353422, 62.55385946905522 
-114.73495482485221, 16.109864924153225, 22.2902923670093, -156.87269454978932, 56.44874365883111, 62.555987155392856 
-115.62987764773149, 15.761769435063151, 22.290743067434658, -157.629932809849, 56.245322414192074, 62.558102049019936 
-116.5241037667368, 15.415693517770473, 22.291182446913524, -158.384808288247, 56.04380395287563, 62.56020355954093 
-117.41770636828086, 15.071719476152929, 22.29161048986751, -159.13739828745514, 55.84421718026847, 62.56229110484383 
-118.31075707603345, 14.72992909569211, 22.292027192324944, -159.88777770614533, 55.64659054330614, 62.56436411120261 
-119.20332593288538, 14.39040364923148, 22.292432561768123, -160.63601911914174, 55.45095203929826, 62.566422013371906 
-120.0954813833907, 14.053223901723907, 22.292826616967293, -161.3821928543914, 55.25732922418716, 62.568464254674424 
-120.9872902566517, 13.718470113952643, 22.293209387801497, -162.12636706707494, 55.06574922026652, 62.57049028708071 
-121.87881774961484, 13.38622204521178, 22.293580915066762, -162.8686078109743, 54.87623872338616, 62.57249957128192 
-122.77012741075512, 13.056558954933362, 22.293941250271747, -163.6089791072111, 54.68882400966744, 62.57449157675519 
-123.66128112412964, 12.729559603250175, 22.294290455421148, -164.3475430104643, 54.50353094175277, 62.57646578182196 
-124.55233909378832, 12.405302250484269, 22.294628602787245, -165.0843596727737, 54.32038497461155, 62.57842167369928 
-125.44335982853474, 12.08386465555339, 22.294955774669887, -165.81948740503017, 54.13941116092399, 62.5803587485443 
-126.33440012703552, 11.765324073288564, 22.29527206314515, -166.5529827362513, 53.96063415606325, 62.582276511491884 
-127.22551506328236, 11.449757250657818, 22.29557756980316, -167.28490047073674, 53.78407822269517, 62.58417447668574 
-128.11675797241497, 11.137240421892695, 22.295872405475347, -168.0152937431943, 53.60976723501458, 62.58605216730304 
-129.0081804369196, 10.827849302515709, 22.296156689951523, -168.74421407192412, 53.437724682635576, 62.5879091155725 
-129.89983227322043, 10.52165908226868, 22.296430551687212, -169.47171141014542, 53.2679736741533, 62.58974486278658 
-130.7917615186885, 10.218744416943396, 22.296694127501524, -170.1978341955462, 53.10053694039311, 62.591558959307356 
-131.68401441909393, 9.919179419118176, 22.296947562266112, -170.92262939813415, 52.93543683736304, 62.59335096456672 
-132.57663541653477, 9.62303764780515, 22.297191008585536, -171.6461425664633, 52.77269534892442, 62.5951204470607 
-133.46966713787694, 9.330392097015517, 22.2974246264695, -172.36841787230782, 52.61233408919511, 62.59686698433837 
-134.3631503837456, 9.041315183251495, 22.297648582997383, -173.08949815385233, 52.454374304699044, 62.59859016298536 
-135.25712411811048, 8.755878731935775, 22.297863051975593, -173.80942495746424, 52.29883687627538, 62.60028957860205 
-136.1516254585127, 8.474153962791316, 22.298068213588024, -174.5282385781123, 52.14574232075991, 62.60196483577703 
-137.04668966698137, 8.19621147418633, 22.29826425404031, -175.24597809849118, 51.995110792451044, 62.603615548055444 
-137.94235014169354, 7.922121226461423, 22.298451365198098, -175.9626814269113, 51.846962084372095, 62.60524133790303 
-138.8386384094333, 7.651952524257762, 22.29862974422013, -176.67838533400973, 51.70131562934092, 62.606841836665396 
-139.73558411890625, 7.385773997867837, 22.298799593186267, -177.39312548833522, 51.55819050085834, 62.60841668452341 
-140.63321503497096, 7.123653583631939, 22.298961118721284, -178.10693649085968, 51.41760541382522, 62.609965530444434 
-141.53155703384806, 6.865658503406328, 22.299114531614645, -178.81985190846484, 51.2795787250987, 62.61148803212962 
-142.430634099371, 6.611855243130922, 22.29926004643701, -179.53190430645148, 51.144128433897215, 62.612983855957935 
-143.33046832034307, 6.362309530526879, 22.299397881153784, 179.75687471988314, 51.01127218206356, 62.614452676926405 
-144.23107988906673, 6.117086311956638, 22.29952825673635, 179.04645451455664, 50.88102725419531, 62.61589417858757 
-145.1324871011108, 5.876249728481485, 22.29965139677144, 178.33680533105994, 50.753410577651124, 62.61730805298368 
-146.03470635638334, 5.639863091153865, 22.299767527069168, 177.62789830332252, 50.628438722441494, 62.61869400057838 
-146.93775216157687, 5.40798885558406, 22.29987687527026, 176.91970541744703, 50.50612790101203, 62.62005173018567 
-147.84163713405127, 5.180688595823376, 22.29997967045297, 176.21219948417578, 50.38649396792728, 62.62138095889674 
-148.7463720072218, 4.9580229776078735, 22.30007614274026, 175.50535411205485, 50.269552419462535, 62.62268141200464 
-149.65196563751576, 4.740051731009473, 22.300166522907627, 174.79914368126163, 50.15531839311115, 62.62395282292707 
-150.55842501296152, 4.5268336225429735, 22.300251041992347, 174.0935433180641, 50.04380666701438, 62.625194933127574 
-151.4657552634714, 4.318426426780192, 22.300329930904354, 173.38852886988073, 49.9350316593207, 62.62640749203522 
-152.37395967287782, 4.114886897524143, 22.300403420039448, 172.68407688091145, 49.829007427481244, 62.627590256963245 
-153.28303969277943, 3.916270738598521, 22.300471738895364, 171.9801645683116, 49.72574766748775, 62.628742993026506 
-154.19299495825098, 3.7226325743095634, 22.300535115691066, 171.27676979888207, 49.62526571305934, 62.62986547305828 
-155.10382330546796, 3.534025919639201, 22.300593776989892, 170.57387106624867, 49.527574534784094, 62.630957477526444 
-156.01552079129243, 3.3505031502303284, 22.300647947327025, 169.8714474685072, 49.43268673922114, 62.632018794449394 
-156.92808171486337, 3.172115472226493, 22.30069784884173, 169.16947868630947, 49.34061456796919, 62.633049219311644 
-157.8414986412299, 2.9989128920298036, 22.3007437009149, 168.46794496136798, 49.251369896706535, 62.63404855497972 
-158.75576242706128, 2.830944186042405, 22.300785719812357, 167.766827075357, 49.16496423420813, 62.635016611618155 
-159.67086224846247, 2.6682568704577703, 22.300824118334397, 167.06610632918975, 49.08140872134452, 62.63595320660597 
-160.5867856309189, 2.510897171169323, 22.30085910547205, 166.36576452265092, 49.00071413006779, 62.63685816445392 
-161.50351848138803, 2.3589099938646454, 22.30089088607048, 165.66578393436572, 48.922890862388925, 62.63773131672258 
-162.42104512254934, 2.212338894374275, 22.300919660499964, 164.96614730208728, 48.84794894935142, 62.6385725019413 
-163.33934832921952, 2.0712260493443346, 22.30094562433498, 164.266837803284, 48.77589805000532, 62.63938156552879 
-164.2584093669309, 1.9356122273028158, 22.300968968041676, 163.56783903601067, 48.70674745038585, 62.640158359714654 
-165.17820803266676, 1.8055367601890973, 22.30098987667428, 162.86913500004653, 48.64050606250084, 62.640902743462824 
-166.09872269773922, 1.6810375154162778, 22.301008529580734, 162.1707100782852, 48.57718242333069, 62.641614582396855 
-167.0199303527887, 1.5621508685353511, 22.301025100118046, 161.47254901836106, 48.516784693844556, 62.6422937487268 
-167.9418066548773, 1.4489116765696883, 22.30103975537767, 160.77463691449796, 48.45932065803629, 62.642940121178455 
-168.8643259766409, 1.3413532520873952, 22.301052655921257, 160.0769591895662, 48.40479772198364, 62.64355358492482 
-169.78746145745825, 1.239507338077989, 22.301063955527265, 159.37950157733482, 48.35322291293376, 62.64413403151999 
-170.71118505658714, 1.143404083698394, 22.301073800948537, 158.68225010490596, 48.304602878418144, 62.64468135883534 
-171.63546760821268, 1.0530720209517563, 22.301082331681386, 157.98519107531945, 48.258943885399916, 62.64519547099878 
-172.56027887834307, 0.9685380423606497, 22.301089679746436, 157.28831105031517, 48.21625181945612, 62.64567627833669 
-173.4855876234839, 0.8898273796941983, 22.30109596948136, 156.5915968332423, 48.176532183997665, 62.64612369731848 
-174.41136165101375, 0.8169635838062479, 22.301101317345985, 155.89503545210374, 48.13979009952938, 62.646537650504925 
-175.33756788117802, 0.7499685056392588, 22.301105831739985, 155.19861414272557, 48.10603030295218, 62.64691806649874 
-176.2641724106114, 0.6888622784457348, 22.30110961283327, 154.50232033204057, 48.0752571469099, 62.64726487989939 
-177.19114057729362, 0.6336633012760713, 22.301112752409477, 153.80614162147617, 48.0474745991822, 62.64757803126042 
-178.11843702683746, 0.5843882237784382, 22.30111533372266, 153.11006577043676, 48.022686242125836, 62.64785746705094 
-179.04602578000222, 0.5410519323530582, 22.301117431367345, 152.41408067987072, 48.00089527216549, 62.64810313962022 
-179.97387030132182, 0.5036675376995223, 22.301119111162272, 151.71817437591315, 47.98210449933591, 62.648315007166055 
179.09806643126885, 0.47224636379215373, 22.30112043004781, 151.02233499359477, 47.96631634687665, 62.64849303370675 
178.1698218559289, 0.44679793831453096, 22.301121435997267, 150.32655076060843, 47.95353285088025, 62.648637189057006 
177.24143375565157, 0.4273299845802367, 22.301122167942204, 149.63080998112423, 47.943755659995404, 62.64874744880736 
176.3129401863763, 0.41384841496278774, 22.301122655711882, 148.93510101964443, 47.93698603518533, 62.64882379430773 
175.38437940460162, 0.40635732585345713, 22.30112291998681, 148.23941228489014, 47.93322484954254, 62.64886621265459 
174.45578979463045, 0.40485899416132554, 22.301122972266576, 147.5437322137106, 47.932472588160195, 62.64887469668218 
173.52720979558117, 0.40935387536567497, 22.301122814852, 146.84804925500757, 47.93472934806048, 62.648849244957546 
172.59867782829755, 0.41984060312615185, 22.301122440841553, 146.1523518536654, 47.939994838180354, 62.64878986177973 
171.67023222229238, 0.4363159904519174, 22.30112183414202, 145.45662843447957, 47.94826837941449, 62.64869655718245 
170.74191114285912, 0.4587750324264171, 22.30112096949363, 144.7608673860742, 47.959548904715355, 62.64856934694123 
169.8137525184844, 0.48721091047993886, 22.30111981250927, 144.06505704480153, 47.97383495925033, 62.64840825258396 
168.88579396869403, 0.5216149981978357, 22.30111831972807, 143.36918567861338, 47.99112470061511, 62.64821330140574 
167.9580727324635, 0.5619768686477709, 22.301116438682943, 142.67324147089747, 48.01141589910308, 62.64798452648723 
167.03062559731939, 0.6082843032052213, 22.301114107982404, 141.97721250426932, 48.03470593802976, 62.64772196671717 
166.10348882925874, 0.6605233018521757, 22.30111125740613, 141.281086744311, 48.060991814111446, 62.64742566681828 
165.17669810360707, 0.7186780949199186, 22.301107808014432, 140.58485202324806, 48.090270137896965, 62.64709567737718 
164.25028843693323, 0.7827311562428522, 22.301103672271402, 139.88849602355558, 48.12253713425131, 62.6467320548779 
163.32429412013522, 0.8526632176864806, 22.301098754181517, 139.19200626148404, 48.15778864288984, 62.64633486173888 
162.39874865280518, 0.9284532850090406, 22.30109294943959, 138.4953700704957, 48.19602011896137, 62.645904166353525 
161.4736846789781, 1.0100786550127787, 22.301086145593864, 137.7985745846015, 48.237226633678546, 62.645440043134215 
160.5491339243619, 1.0975149339375931, 22.301078222222014, 137.10160672158887, 48.28140287499357, 62.64494257255948 
159.62512713514224, 1.1907360570466552, 22.301069051119764, 136.40445316612994, 48.328543148317415, 62.64441184122474 
158.70169401844734, 1.2897143093507466, 22.301058496501984, 135.70710035275982, 48.37864137728009, 62.64384794189579 
157.77886318455379, 1.394420347415422, 22.301046415215936, 135.00953444871385, 48.43169110452981, 62.64325097356552 
156.8566620909062, 1.5048232221925473, 22.301032656966395, 134.31174133661233, 48.48768549256857, 62.64262104151341 
155.93511698801765, 1.6208904028157096, 22.301017064552312, 133.61370659698179, 48.5466173246214, 62.64195825736784 
155.01425286731023, 1.7425878012969482, 22.300999474114775, 132.91541549059957, 48.60847900553645, 62.64126273917092 
154.09409341094894, 1.8698797980604376, 22.300979715395865, 132.21685294065045, 48.673262562713084, 62.64053461144605 
153.17466094371412, 2.0027292682474482, 22.30095761200813, 131.5180035146809, 48.7409596470547, 62.63977400526744 
152.25597638695086, 2.141097608725542, 22.30093298171431, 130.81885140633844, 48.81156153394313, 62.638981058332114 
151.3380592146277, 2.284944765733886, 22.300905636716816, 130.11938041688177, 48.88505912423094, 62.63815591503378 
150.4209274115274, 2.434229263096035, 22.300875383956832, 129.41957393644654, 48.9614429452483, 62.637298726538646 
149.5045974335891, 2.588908230930715, 22.300842025422376, 128.71941492505192, 49.040703151820374, 62.6364096508628 
148.5890841704108, 2.748937434791063, 22.30080535846509, 128.01888589333203, 49.12282952729155, 62.63548885295123 
147.6744009099173, 2.914271305162646, 22.300765176125275, 127.31796888297536, 49.20781148455213, 62.634536504758096 
146.76055930519024, 3.084862967250577, 22.300721267464734, 126.61664544685537, 49.295638067063386, 62.63355278532822 
145.84756934345202, 3.2606642709867075, 22.300673417907003, 125.91489662883342, 49.38629794987652, 62.63253788087942 
144.93543931718827, 3.441625821188142, 22.300621409584526, 125.21270294321633, 49.47977944064079, 62.63149198488569 
144.0241757973881, 3.6276970077992114, 22.30056502169225, 124.51004435384786, 49.576070480596144, 62.63041529816098 
143.11378360887664, 3.8188260361500386, 22.30050403084733, 123.80690025281437, 49.67515864554533, 62.629308028943335 
142.20426580770763, 4.01495995716578, 22.300438211454193, 123.10324943874299, 49.77703114680024, 62.62817039297907 
141.29562366058062, 4.216044697462066, 22.300367336074853, 122.39907009466991, 49.88167483209741, 62.62700261360709 
140.38785662624105, 4.422025089263473, 22.300291175803615, 121.69433976545574, 49.98907618647676, 62.62580492184288 
139.48096233881958, 4.632844900083484, 22.300209500645888, 120.98903533472364, 50.09922133311827, 62.62457755646211 
138.57493659306002, 4.848446862106093, 22.300122079900635, 120.28313300129427, 50.212096034130326, 62.623320764083275 
137.66977333138564, 5.06877270121101, 22.300028682545747, 119.57660825509197, 50.327685691283826, 62.622034799249995 
136.76546463274676, 5.293763165586207, 22.29992907762609, 118.86943585249381, 50.445975346685636, 62.62071992451172 
135.86200070319217, 5.523358053873919, 22.29982303464345, 118.16158979109282, 50.56694968338483, 62.6193764105033 
134.95936986810435, 5.757496242797765, 22.29971032394819, 117.45304328384555, 50.69059302590502, 62.618004536023086 
134.05755856603497, 5.996115714221328, 22.299590717131665, 116.74376873257164, 50.81688934069568, 62.6166045881092 
133.15655134407783, 6.239153581590335, 22.299463987419333, 116.0337377007738, 50.94582223649525, 62.61517686211377 
132.2563308547126, 6.486546115713174, 22.299329910063726, 115.32292088574259, 51.07737496459863, 62.61372166177513 
131.35687785405472, 6.7382287698364225, 22.299188262736838, 114.61128808991117, 51.21153041902105, 62.61223929928757 
130.45817120144326, 6.9941362039747945, 22.299038825921564, 113.89880819142189, 51.34827113655067, 62.610730095368204 
129.56018786030123, 7.254202308456805, 22.298881383301403, 113.18544911386638, 51.487579296681254, 62.609194379321416 
128.66290290020046, 7.518360226650228, 22.298715722148167, 112.47117779515769, 51.62943672141657, 62.60763248909995 
127.76628950006612, 7.786542376833328, 22.298541633706982, 111.75596015549273, 51.77382487493744, 62.606044771362626 
126.87031895245471, 8.058680473180626, 22.29835891357826, 111.03976106435987, 51.92072486312241, 62.604431581529155 
125.97496066884156, 8.33470554583393, 22.298167362095903, 110.32254430654606, 52.07011743291221, 62.60279328383032 
125.0801821858556, 8.614547960031743, 22.29796678470154, 109.60427254709487, 52.221982971508396, 62.601130251355166 
124.18594917239975, 8.898137434272675, 22.297756992313968, 108.88490729516491, 52.3763015053956, 62.59944286609344 
123.29222543759879, 9.185403057490186, 22.297537801693572, 108.16440886673664, 52.53305269917695, 62.597731518974044 
122.39897293951753, 9.476273305218902, 22.297309035801124, 107.44273634611197, 52.69221585421141, 62.5959966098989 
121.50615179459565, 9.770676054734107, 22.29707052415045, 106.71984754615036, 52.853769907041546, 62.59423854777189 
120.61372028774751, 10.068538599148937, 22.296822103154607, 105.99569896718108, 53.01769342759984, 62.59245775052332 
119.72163488307977, 10.369787660455026, 22.296563616464997, 105.27024575452994, 53.18396461718091, 62.59065464512893 
118.8298502351804, 10.674349401495277, 22.29629491530307, 104.54344165459571, 53.35256130616687, 62.58882966762364 
117.93831920093936, 10.98214943685849, 22.29601585878398, 103.81523896940865, 53.52346095149211, 62.58698326311017 
117.04699285186221, 11.293112842688185, 22.295726314232095, 103.08558850960097, 53.696640633833645, 62.58511588576165 
116.15582048684311, 11.607164165399608, 22.29542615748758, 102.35443954571585, 53.87207705451217, 62.58322799881854 
115.26474964536801, 11.92422742930042, 22.2951152732038, 101.62173975777937, 54.049746532088534, 62.581320074579835 
114.3737261211221, 12.244226143113004, 22.294793555135254, 100.88743518305508, 54.22962499863995, 62.57939259438777 
113.48269397598132, 12.567083305397272, 22.294460906415388, 100.15147016189994, 54.41168799569873, 62.577446048606525 
112.59159555437111, 12.89272140887528, 22.29411723982415, 99.4137872816344, 54.59591066983661, 62.57548093659435 
111.7003714979816, 13.221062443659997, 22.293762478044762, 98.67432731833883, 54.78226776787619, 62.573497766669334 
110.80896076083262, 13.552027899392623, 22.293396553909435, 97.93302917648232, 54.97073363171044, 62.57149705606821 
109.91730062468729, 13.885538766294177, 22.293019410633676, 97.18982982628845, 55.16128219271041, 62.569479330898496 
109.0253267148189, 14.221515535138666, 22.292631002038814, 96.4446642387377, 55.353886965700305, 62.56744512608382 
108.13297301613984, 14.559878196156955, 22.292231292762573, 95.69746531810277, 55.5485210424778, 62.56539498530194 
107.24017188970892, 14.900546236881368, 22.29182025845709, 94.94816383190957, 55.74515708485703, 62.56332946091574 
106.34685408963735, 15.243438638943386, 22.291397885974533, 94.19668833821227, 55.94376731720996, 62.56124911389701 
105.45294878042122, 15.588473873837446, 22.290964173539642, 93.44296511006763, 56.1443235184811, 62.559154513742875 
104.55838355473328, 15.93556989766618, 22.2905191309092, 92.68691805708887, 56.34679701364905, 62.55704623838461 
