# MEX_intpoint_lon [deg], MEX_intpoint_lat [deg], MEX_intpoint_angle [deg], TGO_intpoint_lon [deg], TGO_intpoint_lat [deg], TGO_intpoint_angle [deg] 
-103.71541776676459, 20.366815812205495, 22.16996611196666, -141.6597320310322, 58.83345349841729, 62.53250552892974 
-104.6283326870474, 20.007172199689325, 22.170533218352098, -142.44173446903395, 58.60404231673826, 62.534796994159215 
-105.53956682792061, 19.648484179648047, 22.17109051497295, -143.2203187842566, 58.376210266065364, 62.53708233010165 
-106.44920794725678, 19.290840317289383, 22.17163784378941, -143.99559850095847, 58.14999240760418, 62.53936084513277 
-107.35734258944379, 18.934328527599902, 22.172175058636054, -144.7676833985414, 57.92542319866854, 62.541631854680666 
-108.26405605466415, 18.579036090008344, 22.17270202524145, -145.53667964656665, 57.70253651076182, 62.543894681417896 
-109.16943236967609, 18.22504966242111, 22.1732186212333, -146.30268993440265, 57.481365646612204, 62.546148655445045 
-110.07355425997682, 17.872455294592083, 22.173724736129383, -147.06581359571106, 57.261943356214495, 62.54839311446648 
-110.97650312323796, 17.52133844079015, 22.174220271314166, -147.82614672797246, 57.04430185192765, 62.55062740395753 
-111.87835900390832, 17.171783971731035, 22.17470514000128, -148.58378230724804, 56.82847282267518, 62.552850877323614 
-112.7792005688886, 16.82387618574117, 22.17517926718189, -149.33881029836965, 56.61448744729276, 62.555062896050934 
-113.67910508418846, 16.477698819124278, 22.175642589559065, -150.09131776074346, 56.402376407065496, 62.557262829848995 
-114.5781483924841, 16.133335055702513, 22.176095055468366, -150.84138894994825, 56.192169897494686, 62.55945005678499 
-115.47640489150136, 15.7908675355062, 22.176536624784582, -151.58910541530332, 55.9838976393322, 62.561623963409765 
-116.37394751315611, 15.450378362588074, 22.176967268815034, -152.33454609357486, 55.77758888891853, 62.5637839448759 
-117.27084770339017, 15.111949111939321, 22.17738697017939, -153.07778739898453, 55.573272447858706, 62.56592940504748 
-118.16717540264803, 14.77566083548673, 22.177795722676354, -153.8189033096777, 55.37097667206881, 62.56805975660196 
-119.06299902694538, 14.441594067151573, 22.178193531137268, -154.55796545080386, 55.17072948022353, 62.570174421123916 
-119.95838544948728, 14.109828826952779, 22.17858041126704, -155.29504317435516, 54.972558361634654, 62.57227282919108 
-120.8533999827995, 13.780444624138182, 22.178956389472447, -156.0302036359043, 54.77649038358804, 62.57435442045242 
-121.74810636134238, 13.453520459329459, 22.17932150267813, -156.76351186837732, 54.58255219816571, 62.57641864369863 
-122.6425667245832, 13.129134825667695, 22.179675798130692, -157.49503085299187, 54.39077004857836, 62.57846495692474 
-123.5368416005071, 12.807365708948277, 22.180019333190856, -158.2248215874853, 54.20116977503236, 62.580492827385655 
-124.43098988955396, 12.488290586735102, 22.18035217511433, -158.9529431517539, 54.01377682015398, 62.58250173164395 
-125.3250688489724, 12.171986426445857, 22.18067440082143, -159.6794527710178, 53.828616233992896, 62.58449115561038 
-126.21913407758822, 11.858529682401588, 22.180986096655896, -160.40440587662212, 53.64571267862561, 62.5864605945777 
-127.11323950098895, 11.547996291835325, 22.181287358133225, -161.12785616458152, 53.46509043237867, 62.588409553246855 
-128.00743735713183, 11.240461669856241, 22.18157828967886, -161.8498556519681, 53.28677339369074, 62.590337545746934 
-128.90177818238647, 10.9360007033673, 22.181859004356568, -162.57045473124188, 53.11078508463142, 62.59224409564805 
-129.79631079802817, 10.634687743936286, 22.182129623587397, -163.2897022226158, 52.937148654094415, 62.59412873596774 
-130.69108229720297, 10.336596599621373, 22.18239027685963, -164.0076454245459, 52.76588688068121, 62.59599100917127 
-131.58613803238808, 10.041800525754695, 22.182641101430054, -164.72433016243096, 52.597022175291436, 62.59783046716526 
-132.48152160337787, 9.750372214688529, 22.182882242017026, -165.43980083560513, 52.43057658343488, 62.599646671285925 
-133.37727484582615, 9.462383784511113, 22.18311385048567, -166.15410046270054, 52.26657178727966, 62.60143919228083 
-134.27343782038238, 9.177906766740582, 22.183336085525713, -166.86727072545605, 52.10502910745065, 62.60320761028563 
-135.1700488024604, 8.897012093007534, 22.183549112322314, -167.5793520110437, 51.945969504591325, 62.60495151479479 
-136.06714427268335, 8.61977008073869, 22.18375310222036, -168.29038345298167, 51.789413580701954, 62.60667050462761 
-136.96475890804956, 8.346250417856199, 22.183948232382733, -169.0004029706992, 51.63538158026639, 62.60836418788867 
-137.86292557386875, 8.076522146509012, 22.184134685442856, -169.7094473078173, 51.48389339117947, 62.61003218192392 
-138.7616753165195, 7.810653645854733, 22.184312649152176, -170.4175520692045, 51.33496854548611, 62.61167411327183 
-139.66103735708114, 7.54871261391295, 22.18448231602285, -171.1247517568663, 51.18862621994344, 62.61328961761031 
-140.56103908589597, 7.290766048512458, 22.184643882966306, -171.83107980472215, 51.044885236416086, 62.61487833969932 
-141.4617060581183, 7.036880227357621, 22.184797550927968, -172.53656861232426, 50.90376406211524, 62.61643993331956 
-142.36306199030994, 6.787120687240904, 22.18494352451883, -173.24124957756698, 50.76528080969105, 62.61797406120756 
-143.2651287581412, 6.541552202430962, 22.185082011644127, -173.94515312843635, 50.629453237187654, 62.61948039498693 
-144.16792639525917, 6.300238762267834, 22.18521322312988, -174.64830875384533, 50.496298747870426, 62.620958615096626 
-145.07147309338364, 6.06324354799917, 22.185337372347547, -175.35074503359846, 50.36583438993384, 62.6224084107161 
-145.97578520369325, 5.830628908893475, 22.185454674837388, -176.052489667529, 50.23807685609865, 62.623829479687465 
-146.88087723956355, 5.602456337668562, 22.185565347931156, -176.75356950384793, 50.11304248310654, 62.62522152843517 
-147.78676188071748, 5.378786445275912, 22.185669610374354, -177.45401056674424, 49.99074725112033, 62.62658427188356 
-148.69344997885028, 5.159678935083367, 22.18576768194882, -178.15383808327252, 49.87120678303719, 62.627917433371664 
-149.6009505647873, 4.945192576501159, 22.185859783095935, -178.85307650956375, 49.7544363437225, 62.62922074456693 
-150.5092708572335, 4.735385178098074, 22.18594613454108, -179.5517495563928, 49.64045083917158, 62.63049394537657 
-151.41841627317123, 4.530313560256826, 22.186026956919825, 179.75011978586545, 49.52926481560583, 62.631736783857995 
-152.3283904399605, 4.330033527419542, 22.186102470406258, 179.05250922285998, 49.42089245851074, 62.632949016127796 
-153.23919520919364, 4.134599839976235, 22.186172894344026, 178.35539713243864, 49.31534759162159, 62.63413040626972 
-154.15083067235415, 3.9440661858511, 22.186238446880562, 177.65876254134568, 49.21264367586341, 62.635280726242215 
-155.06329517832498, 3.7584851518428914, 22.186299344604993, 176.96258510241503, 49.11279380825151, 62.63639975578514 
-155.97658535278967, 3.5779081947776756, 22.186355802190118, 176.26684507223365, 49.01581072075806, 62.63748728232651 
-156.89069611956438, 3.4023856125333913, 22.18640803203907, 175.5715232892503, 48.921706779150774, 62.638543100888846 
-157.8056207238962, 3.231966514997314, 22.18645624393703, 174.87660115230616, 48.83049398180896, 62.63956701399607 
-158.72135075775688, 3.0666987950185645, 22.186500644708488, 174.18206059956452, 48.74218395852246, 62.640558831580464 
-159.63787618715884, 2.9066290994190664, 22.18654143788044, 173.48788408781866, 48.65678796927846, 62.641518370890495 
-160.55518538151244, 2.7518028001270975, 22.186578823352157, 172.79405457215654, 48.57431690304126, 62.64244545639926 
-161.47326514504044, 2.6022639654985658, 22.18661299707169, 172.10055548596318, 48.49478127652971, 62.643339919714094 
-162.39210075025838, 2.4580553318915657, 22.18664415071976, 171.40737072124165, 48.418191232996875, 62.644201599487374 
-163.3116759735254, 2.3192182755601767, 22.186672471401362, 170.71448460923435, 48.34455654101669, 62.64503034132859 
-164.23197313266272, 2.1857927849337355, 22.186698141345445, 170.0218819013279, 48.27388659328131, 62.645825997718354 
-165.15297312663063, 2.057817433347803, 22.186721337613218, 169.32954775022444, 48.20619040541387, 62.64658842792401 
-166.07465547725045, 1.9353293522927626, 22.186742231815316, 168.63746769136412, 48.14147661480013, 62.64731749791703 
-166.99699837294875, 1.8183642052456175, 22.1867609898382, 167.9456276245828, 48.07975347944314, 62.64801308029326 
-167.91997871449706, 1.706956162149851, 22.186777771580346, 167.25401379599137, 48.02102887684413, 62.648675054194705 
-168.84357216271152, 1.6011378746074818, 22.186792730698322, 166.56261278006156, 47.96531030291352, 62.649303305234376 
-169.76775318807213, 1.5009404518460907, 22.18680601436327, 165.87141146190604, 47.91260487091504, 62.6498977254235 
-170.69249512221322, 1.4063934375225715, 22.186817763027996, 165.1803970197389, 47.8629193104461, 62.650458213101906 
-171.6177702112312, 1.3175247874235456, 22.186828110205095, 164.48955690750455, 47.81625996645753, 62.65098467287092 
-172.54354967074835, 1.2343608481207653, 22.186837182256298, 163.7988788376633, 47.77263279831533, 62.65147701552973 
-173.4698037426654, 1.1569263366377889, 22.186845098193377, 163.10835076412155, 47.73204337890721, 62.65193515801507 
-174.3965017535295, 1.0852443211819311, 22.186851969490867, 162.41796086529604, 47.69449689379616, 62.65235902334368 
-175.32361217443776, 1.0193362029931394, 22.186857899910862, 161.7276975273013, 47.6599981404237, 62.652748540559045 
-176.25110268239123, 0.9592216993588135, 22.186862985340074, 161.03754932724962, 47.628551527364706, 62.65310364468121 
-177.17894022300817, 0.904918827840633, 22.186867313639397, 160.3475050166539, 47.600161073635874, 62.65342427666048 
-178.10709107449998, 0.8564438917565795, 22.1868709645062, 159.6575535049236, 47.574830408059675, 62.65371038333494 
-179.03552091280926, 0.8138114669580029, 22.186874009349566, 158.96768384294373, 47.5525627686855, 62.65396191739173 
-179.96419487780392, 0.7770343899383569, 22.186876511178465, 158.2778852067289, 47.53336100226942, 62.65417883733251 
179.10692235958317, 0.7461237473065023, 22.186878524503204, 157.5881468811418, 47.517227563813975, 62.65436110744271 
178.17786652938196, 0.721088866654031, 22.186880095250274, 156.89845824366859, 47.504164516169084, 62.65450869776513 
177.24867369389824, 0.7019373088420223, 22.18688126069049, 156.2088087482421, 47.49417352969523, 62.65462158407747 
176.31938017843189, 0.688674861729031, 22.186882049380895, 155.51918790910395, 47.48725588198976, 62.654699747874204 
175.3900225015222, 0.6813055353578163, 22.18688248112006, 154.82958528469786, 47.483412457676735, 62.654743176352724 
174.46063730484593, 0.6798315586144439, 22.1868825669172, 154.13999046158548, 47.48264374826129, 62.654751862403536 
173.5312612828926, 0.6842533773691443, 22.18688230897504, 153.45039303837643, 47.48494985204848, 62.6547258046051 
172.60193111254483, 0.6945696541042407, 22.18688170068631, 152.76078260966435, 47.49033047412713, 62.654665007222476 
171.67268338269025, 0.710777269030157, 22.186880726644095, 152.07114874996142, 47.498784926418445, 62.6545694802108 
170.7435545239925, 0.7328713226863328, 22.186879362665895, 151.3814809976221, 47.51031212778948, 62.65443923922264 
169.81458073894697, 0.7608451400197499, 22.186877575831353, 150.69176883874866, 47.52491060423107, 62.654274305619936 
168.88579793234754, 0.7946902759295327, 22.186875324533684, 150.00200169107006, 47.54257848909979, 62.654074706489844 
167.95724164228665, 0.8343965222620383, 22.186872558544657, 149.31216888778567, 47.56331352342341, 62.65384047466528 
167.02894697181117, 0.8799519162367468, 22.186869219093165, 148.62225966136546, 47.587113056268876, 62.65357164874906 
166.10094852135182, 0.9313427502794142, 22.186865238957022, 147.93226312729834, 47.61397404517218, 62.65326827314269 
165.17328032204233, 0.9885535832349059, 22.186860542568233, 147.24216826777922, 47.643893056628606, 62.652930398079064 
164.24597577003993, 1.0515672529286932, 22.18685504613123, 146.5519639153269, 47.67686626664262, 62.65255807965881 
163.31906756195548, 1.1203648900420786, 22.186848657754208, 145.86163873632253, 47.71288946133541, 62.65215137989128 
162.39258763149618, 1.1949259332629338, 22.186841277593174, 145.1711812144604, 47.75195803760893, 62.651710366738655 
161.4665670874206, 1.275228145670491, 22.186832798008677, 144.48057963410037, 47.79406700386449, 62.65123511416429 
160.54103615289867, 1.3612476323094462, 22.186823103734902, 143.78982206351313, 47.83921098077399, 62.650725702184566 
159.61602410636576, 1.4529588589058102, 22.186812072060935, 143.09889633800702, 47.88738420210178, 62.650182216924215 
158.6915592239527, 1.5503346716742366, 22.18679957302401, 142.407790042927, 47.93858051557489, 62.649604750675174 
157.76766872356885, 1.6533463181638604, 22.186785469614378, 141.71649049651356, 47.99279338379921, 62.64899340195868 
156.8443787107082, 1.7619634690875658, 22.18676961799163, 141.0249847326117, 48.0500158852191, 62.64834827559065 
155.92171412604336, 1.8761542410773058, 22.186751867712136, 140.3332594832171, 48.11024071511771, 62.6476694827501 
154.99969869486387, 1.9958852203063122, 22.186732061967277, 139.64130116084777, 48.17346018665506, 62.64695714105023 
154.0783548784116, 2.12112148691734, 22.186710037832214, 138.94909584072906, 48.23966623194091, 62.64621137461258 
153.15770382715607, 2.2518266401946696, 22.186685626524792, 138.2566292427775, 48.30885040313927, 62.64543231414356 
152.23776533604862, 2.3879628244163214, 22.186658653674325, 137.5638867133714, 48.38100387360096, 62.64462009701364 
151.3185578017864, 2.529490755322027, 22.1866289395998, 136.87085320689263, 48.45611743902102, 62.6437748673384 
150.4000981821105, 2.6763697471316696, 22.186596299597245, 136.17751326702557, 48.53418151861694, 62.64289677606212 
149.48240195715678, 2.828557740048423, 22.18656054423573, 135.48385100779717, 48.615186156324135, 62.64198598104299 
148.56548309287044, 2.98601132818052, 22.186521479661845, 134.7898500943421, 48.69912102200439, 62.64104264714012 
147.6493540064908, 3.1486857878153045, 22.186478907911948, 134.09549372337628, 48.78597541266337, 62.640066946302014 
146.7340255341044, 3.3165351059795625, 22.18643262723203, 133.4007646033606, 48.87573825367252, 62.63905905765654 
145.81950690026076, 3.4895120092203076, 22.186382432404645, 132.70564493433716, 48.96839809999114, 62.63801916760185 
144.90580568963804, 3.6675679925405538, 22.18632811508248, 132.01011638741784, 49.063943137383625, 62.63694746989824 
143.992927820741, 3.850653348425594, 22.186269464128177, 131.31416008390568, 49.16236118362726, 62.635844165760815 
143.08087752160844, 4.03871719589586, 22.186206265959903, 130.61775657402816, 49.2636396897054, 62.634709463952696 
142.16965730750204, 4.231707509523608, 22.186138304902222, 129.92088581525934, 49.36776574098075, 62.633543580878225 
141.2592679605445, 4.4295711483518, 22.186065363541854, 129.22352715020924, 49.47472605834344, 62.63234674067661 
140.34970851126974, 4.632253884654921, 22.185987223087736, 128.525659284055, 49.58450699932818, 62.631119175315106 
139.4409762220451, 4.839700432482755, 22.185903663735075, 127.82726026148991, 49.69709455919482, 62.62986112468195 
138.53306657232042, 5.051854475929999, 22.185814465032745, 127.12830744316287, 49.81247437196621, 62.62857283667885 
137.6259732456569, 5.268658697075996, 22.185719406253657, 126.42877748158155, 49.93063171141723, 62.627254567312086 
136.7196881184848, 5.490054803540775, 22.185618266767598, 125.72864629645004, 50.05155149200847, 62.62590658078326 
135.81420125053668, 5.715983555605568, 22.18551082641592, 125.02788904941086, 50.17521826975822, 62.62452914957811 
134.909500876901, 5.946384792847683, 22.185396865887792, 124.3264801181601, 50.30161624304547, 62.623122554554264 
134.00557340163797, 6.181197460241896, 22.1852761670974, 123.62439306990234, 50.43072925333742, 62.62168708502689 
133.10240339289976, 6.420359633682358, 22.18514851356151, 122.92160063411147, 50.56254078583354, 62.62022303885245 
132.1999735794934, 6.663808544881447, 22.185013690777133, 122.21807467456046, 50.69703397001929, 62.61873072251032 
131.2982648488266, 6.911480605603762, 22.18487148659854, 121.51378616058346, 50.834191580121114, 62.617210451181755 
130.39725624617452, 7.163311431196119, 22.184721691613273, 120.80870513752997, 50.97399603545496, 62.61566254882627 
129.49692497520522, 7.41923586337614, 22.184564099516667, 120.10280069637025, 51.11642940065987, 62.61408734825501 
128.59724639970275, 7.679187992244745, 22.184398507484257, 119.39604094240855, 51.26147338580793, 62.61248519120103 
127.69819404642644, 7.943101177489613, 22.184224716541756, 118.68839296305964, 51.40910934638171, 62.6108564283861 
126.79973960904613, 8.210908068749292, 22.184042531931933, 117.97982279464085, 51.55931828310971, 62.60920141958382 
125.90185295309364, 8.482540625109674, 22.18385176347806, 117.27029538813046, 51.71208084165055, 62.607520533679136 
125.00450212187285, 8.757930133706648, 22.18365222594333, 116.5597745738415, 51.86737731211538, 62.60581414872349 
124.10765334327186, 9.037007227411312, 22.18344373938582, 115.8482230249559, 52.025187628418735, 62.60408265198571 
123.21127103742272, 9.319701901575705, 22.18322612950857, 115.13560221986386, 52.185491367446694, 62.602326439998734 
122.31531782515644, 9.605943529819758, 22.1829992280042, 114.42187240324866, 52.34826774803115, 62.600545918601064 
121.41975453720373, 9.89566087884168, 22.182762872893704, 113.70699254585568, 52.513495629718875, 62.59874150297365 
120.52454022409343, 10.18878212223655, 22.182516908858943, 112.99092030288114, 52.68115351132306, 62.59691361767159 
119.62963216670565, 10.48523485330948, 22.182261187568354, 112.27361197091345, 52.85121952924485, 62.595062696650416 
118.73498588743672, 10.784946096871966, 22.18199556799549, 111.55502244335649, 53.023671455551714, 62.59318918328685 
117.84055516193965, 11.087842320011841, 22.181719916729964, 110.83510516426168, 53.19848669579914, 62.59129353039376 
116.94629203140485, 11.39384944182908, 22.181434108280285, 110.11381208049194, 53.37564228658128, 62.58937620022944 
116.05214681535035, 11.702892842131826, 22.18113802536836, 109.39109359213712, 53.555114892795906, 62.58743766450037 
115.15806812489596, 12.014897369088242, 22.180831559215022, 108.66689850109748, 53.73688080460797, 62.58547840435825 
114.26400287649696, 12.329787345832413, 22.180514609816466, 107.94117395774727, 53.92091593409576, 62.58349891039007 
113.3698963061211, 12.647486576023136, 22.180187086210957, 107.21386540558754, 54.10719581156263, 62.581499682601844 
112.4756919838531, 12.967918348357307, 22.179848906735668, 106.48491652379222, 54.295695581496716, 62.5794812303956 
111.58133182891892, 13.291005440040168, 22.179499999273105, 105.7542691675485, 54.48638999815997, 62.577444072539265 
110.68675612512432, 13.616670119217249, 22.179140301486946, 105.02186330608707, 54.67925342078731, 62.575388737129686 
109.79190353670882, 13.944834146373603, 22.178769761046844, 104.28763695829434, 54.87425980837538, 62.5733157615483 
108.89671112462047, 14.275418774708104, 22.178388335841927, 103.55152612579352, 55.071382714039714, 62.57122569240964 
108.0011143632221, 14.608344749491962, 22.177995994182723, 102.81346472337657, 55.270595278917966, 62.569119085502194 
107.10504715744554, 14.943532306421854, 22.177592714991185, 102.07338450666487, 55.47187022559562, 62.56699650572192 
106.2084418604155, 15.28090116898021, 22.177178487978484, 101.33121499687032, 55.67517985102979, 62.564858526997895 
105.31122929157077, 15.620370544816, 22.176753313810508, 100.58688340252452, 55.880496018944754, 62.56270573221029 
104.4133387553158, 15.9618591211617, 22.176317204260585, 99.84031453803718, 56.08779015167267, 62.560538713100634 
