# MEX_intpoint_lon [deg], MEX_intpoint_lat [deg], MEX_intpoint_angle [deg], TGO_intpoint_lon [deg], TGO_intpoint_lat [deg], TGO_intpoint_angle [deg] 
-104.7542758121919, 20.606939998512882, 22.79033052234555, -177.5741692439938, 58.86671538853238, 62.53481865431309 
-105.64827188135882, 20.21504640947604, 22.79097329853457, -178.35781576305487, 58.63818431360524, 62.53710013242658 
-106.54055840111161, 19.82428773392446, 22.791604119865827, -179.138028972863, 58.41122255036407, 62.53937553592499 
-107.43123654916046, 19.434756074986673, 22.7922228084984, -179.91492244550193, 58.18586520211431, 62.54164417614305 
-108.32040588254638, 19.046542852210994, 22.792829201067175, 179.31139397763857, 57.96214676558607, 62.543905371402936 
-109.20816431750474, 18.65973882387492, 22.79342314870227, 178.54081405210874, 57.74010114905961, 62.54615844720581 
-110.09460811049175, 18.2744341083149, 22.794004517031127, 177.77323500191088, 57.51976168944816, 62.54840273641485 
-110.97983184023043, 17.89071820424399, 22.79457318616302, 177.00855739607994, 57.30116116839009, 62.550637579430386 
-111.86392839064476, 17.508680010026517, 22.795129050656396, 176.2466850301376, 57.08433182739929, 62.552862324356575 
-112.74698893455955, 17.128407841881494, 22.79567201946874, 175.4875248122305, 56.86930538212067, 62.55507632716007 
-113.62910291805555, 16.74998945098771, 22.796202015889428, 174.7309866537667, 56.65611303573451, 62.55727895182053 
-114.5103580453774, 16.37351203946577, 22.796718977455477, 173.97698336437026, 56.44478549155193, 62.5594695704728 
-115.39084026430275, 15.99906227521361, 22.79722285585046, 173.22543055097825, 56.235352964841255, 62.56164756354112 
-116.27063375188962, 15.626726305573646, 22.79771361678665, 172.4762465209106, 56.02784519392277, 62.56381231986499 
-117.14982090052733, 15.256589769811391, 22.798191239870704, 171.72935218874787, 55.82229145056814, 62.5659632368172 
-118.02848230422659, 14.888737810386399, 22.798655718453002, 170.98467098685722, 55.618720549738086, 62.56809972041366 
-118.9066967450904, 14.523255082998167, 22.79910705946089, 170.24212877941363, 55.417160858691226, 62.570221185415406 
-119.78454117991805, 14.160225765390582, 22.79954528321615, 169.50165377976677, 55.217640305494264, 62.57232705542248 
-120.6620907268995, 13.799733564900126, 22.79997042323684, 168.76317647101126, 55.02018638696313, 62.57441676296029 
-121.5394186523685, 13.441861724733906, 22.80038252602386, 168.02662952962157, 54.82482617606279, 62.57648974955789 
-122.41659635758589, 13.086693028965414, 22.800781650832615, 167.29194775201955, 54.631586328792125, 62.57854546581891 
-123.29369336553651, 12.734309806236558, 22.801167869429907, 166.55906798394605, 54.440493090578926, 62.58058337148474 
-124.17077730772559, 12.384793932156436, 22.801541265836637, 165.82792905251466, 54.25157230220936, 62.58260293549038 
-125.04791391097048, 12.03822683038799, 22.801901936056446, 165.0984717008289, 54.064849405314305, 62.58460363601288 
-125.9251669841887, 11.69468947241565, 22.802249987790823, 164.37063852504974, 53.88034944743453, 62.586584960512724 
-126.80259840518943, 11.354262375988034, 22.802585540141045, 163.64437391380554, 53.69809708668555, 62.588546405767865 
-127.68026810748322, 11.01702560223125, 22.802908723297293, 162.9196239898382, 53.51811659604175, 62.59048747790119 
-128.55823406712847, 10.683058751430224, 22.803219678215374, 162.19633655378766, 53.34043186725887, 62.59240769240098 
-129.43655228964138, 10.352440957476317, 22.803518556281606, 161.474461030017, 53.165066414452795, 62.59430657413466 
-130.3152767969997, 10.02525088098198, 22.803805518966158, 160.75394841438722, 52.992043377352054, 62.59618365735636 
-131.19445961477774, 9.701566701063983, 22.804080737465387, 160.0347512238929, 52.82138552424035, 62.598038485707875 
-132.0741507594535, 9.381466105799337, 22.804344392333665, 159.31682344807493, 52.653115254605105, 62.59987061221366 
-132.95439822593593, 9.065026281359213, 22.80459667310517, 158.60012050212868, 52.48725460150706, 62.60167959926973 
-133.83524797536336, 8.752323899828493, 22.80483777790608, 157.88459918163062, 52.3238252336855, 62.60346501862697 
-134.71674392322936, 8.443435105720493, 22.80506791305782, 157.17021761880932, 52.16284845741289, 62.60522645136872 
-135.59892792789745, 8.138435501198268, 22.80528729267181, 156.45693524028917, 52.00434521811244, 62.606963487882865 
-136.48183977956916, 7.837400130016431, 22.80549613823618, 155.74471272623933, 51.8483361017512, 62.608675727828924 
-137.36551718977395, 7.540403460199468, 22.805694678195163, 155.03351197086283, 51.69484133602127, 62.61036278010005 
-138.24999578145437, 7.247519365474897, 22.805883147521566, 154.32329604416338, 51.543880791320625, 62.612024262780174 
-139.13530907972145, 6.958821105481924, 22.806061787283006, 153.6140291549299, 51.39547398154522, 62.61365980309664 
-140.02148850335993, 6.6743813047791765, 22.8062308442024, 152.90567661488296, 51.24964006470319, 62.61526903736836 
-140.90856335716478, 6.394271930677013, 22.806390570213328, 152.19820480392653, 51.10639784336167, 62.61685161095008 
-141.79656082519355, 6.118564269923145, 22.806541222010804, 151.4915811364553, 50.96576576493646, 62.61840717817221 
-142.6855059650209, 5.847328904272736, 22.806683060598182, 150.7857740286653, 50.82776192183435, 62.61993540227762 
-143.57542170308318, 5.580635684976795, 22.806816350830566, 150.08075286682157, 50.692404051457515, 62.62143595535412 
-144.46632883120384, 5.318553706225816, 22.806941360955584, 149.3764879764365, 50.559709536079, 62.62290851826443 
-145.35824600438892, 5.0611512775881975, 22.807058362151942, 148.6729505923151, 50.42969540259834, 62.624352780572664 
-146.25118973998514, 4.808495895486026, 22.807167628066434, 147.97011282942586, 50.30237832218563, 62.62576844046821 
-147.1451744182923, 4.560654213753498, 22.807269434350005, 147.26794765455648, 50.177774609822215, 62.62715520468673 
-148.0402122847201, 4.317692013326544, 22.807364058193482, 146.5664288587168, 50.05590022374623, 62.62851278842928 
-148.93631345358253, 4.079674171114692, 22.807451777863623, 145.86553103025184, 49.9367707648103, 62.62984091527895 
-149.8334859136171, 3.846664628109462, 22.80753287224003, 145.16522952863065, 49.82040147575904, 62.631139317115704 
-150.7317355353193, 3.618726356786269, 22.807607620353547, 144.4655004588764, 49.706807240433584, 62.63240773402954 
-151.63106608017696, 3.39592132785969, 22.807676300926776, 143.7663206466069, 49.59600258290987, 62.633645914232474 
-152.53147921188946, 3.1783104764547243, 22.807739191917328, 143.06766761365404, 49.48800166657761, 62.63485361396897 
-153.43297450965133, 2.965953667759393, 22.80779657006439, 142.36951955423322, 49.38281829316633, 62.63603059742549 
-154.3355494835786, 2.758909662226621, 22.807848710439135, 141.67185531163474, 49.280465901724874, 62.63717663663962 
-155.23919959235064, 2.557236080395766, 22.80789588599976, 140.97465435541042, 49.18095756756028, 62.6382915114082 
-156.14391826313633, 2.360989367406748, 22.807938367151486, 140.27789675902955, 49.08430600114207, 62.63937500919574 
-157.04969691386853, 2.1702247572817552, 22.80797642131234, 139.5815631779801, 48.99052354697764, 62.64042692504208 
-157.9565249779256, 1.9849962370517629, 22.808010312485113, 138.88563482829116, 48.89962218246414, 62.641447061470856 
-158.86438993127172, 1.8053565108068883, 22.808040300836126, 138.19009346545502, 48.81161351672219, 62.64243522839793 
-159.7732773221036, 1.6313569637514214, 22.80806664228146, 137.49492136372638, 48.72650878941671, 62.643391243040604 
-160.68317080304175, 1.463047626345896, 22.80808958808093, 136.80010129577923, 48.64431886956958, 62.64431492982748 
-161.59405216589923, 1.3004771386198275, 22.80810938444069, 136.10561651270083, 48.56505425436901, 62.64520612030952 
-162.50590137905263, 1.1436927147398677, 22.808126272124674, 135.4114507243049, 48.488725067980354, 62.64606465307201 
-163.4186966274318, 0.9927401079188607, 22.808140486075615, 134.71758807974487, 48.41534106036257, 62.64689037364827 
-164.33241435513736, 0.8476635757519592, 22.808152255046, 134.02401314841126, 48.34491160609469, 62.64768313443462 
-165.24702931068515, 0.7085058460661992, 22.80816180123955, 133.33071090109547, 48.27744570321646, 62.64844279460746 
-166.16251459486955, 0.5753080833698814, 22.808169339963598, 132.63766669140523, 48.21295197208695, 62.649169220041884 
-167.07884171122765, 0.44810985598788916, 22.80817507929298, 131.94486623741554, 48.15143865426498, 62.649862283232935 
-167.99598061907722, 0.32694910396838406, 22.808179219745636, 131.25229560354128, 48.09291361141498, 62.65052186321869 
-168.91389978909166, 0.21186210784553533, 22.808181953970667, 130.55994118261722, 48.03738432424161, 62.651147845506166 
-169.83256626136733, 0.102883458341587, 22.808183466449, 129.867789678172, 47.98485789145648, 62.65174012199966 
-170.75194570592717, 4.602709007124698e-05, 22.808183933207125, 129.17582808688334, 47.93534102878015, 62.65229859093188 
-171.67200248559647, -0.09661906153988149, 22.80818352154447, 128.48404368120188, 47.88884006798227, 62.652823156798206 
-172.5926997211772, -0.18708245744038995, 22.808182389774412, 127.79242399213194, 47.845360955962626, 62.653313730293604 
-173.5139993588379, -0.27131661050759154, 22.80818068697965, 127.10095679215752, 47.80490925387577, 62.6537702282533 
-174.4358622396267, -0.3492957950579005, 22.808178552782007, 126.40963007830241, 47.76749013630178, 62.65419257359625 
-175.3582481710082, -0.4209961328484393, 22.808176117127047, 125.71843205531391, 47.73310839046525, 62.65458069527241 
-176.28111600031374, -0.4863956146358625, 22.80817350008388, 125.02735111895966, 47.7017684155049, 62.65493452821328 
-177.20442368998914, -0.5454741202112892, 22.808170811660197, 124.33637583942728, 47.67347422179552, 62.65525401328632 
-178.1281283945145, -0.5982134368532942, 22.80816815163312, 123.6454949448175, 47.6482294303244, 62.65553909725308 
-179.05218653886493, -0.6445972761449837, 22.808165609395665, 122.9546973047211, 47.62603727212355, 62.65578973273107 
-179.97655389837283, -0.6846112891057284, 22.808163263819477, 122.26397191387001, 47.606900587759476, 62.656005878159505 
179.09881432015206, -0.7182430795929223, 22.80816118313366, 121.57330787585437, 47.590821826881836, 62.65618749776931 
178.17396339619566, -0.7454822159339164, 22.808159424819998, 120.88269438689593, 47.57780304783182, 62.656334561556704 
177.24893901236038, -0.7663202407535468, 22.80815803552482, 120.19212071966933, 47.567845917311885, 62.65644704526147 
176.32378717039336, -0.7807506789678345, 22.808157050987383, 119.50157620716308, 47.56095171011701, 62.656524930348695 
175.39855410658456, -0.7887690439198691, 22.808156495985077, 118.81105022657135, 47.55712130892871, 62.656568203995384 
174.47328620670078, -0.7903728416395583, 22.808156384295465, 118.12053218320833, 47.55635520417199, 62.65657685908062 
173.54802992062343, -0.7855615732142459, 22.808156718675104, 117.43001149443701, 47.558653493935864, 62.656550894180604 
172.62283167685897, -0.7743367352632354, 22.808157490855343, 116.73947757360442, 47.56401588395735, 62.65649031356722 
171.6977377970914, -0.7567018185146575, 22.808158681555035, 116.04891981397428, 47.57244168766925, 62.65639512721154 
170.77279441094748, -0.7326623044890513, 22.808160260510036, 115.35832757264984, 47.58392982631148, 62.656265350791074 
169.84804737114163, -0.702225660299585, 22.808162186519652, 114.66769015447795, 47.59847882910567, 62.65610100570133 
168.92354216916877, -0.6654013315846181, 22.80816440750985, 113.9769967959265, 47.61608683349254, 62.65590211907189 
167.99932385170857, -0.6222007335937466, 22.808166860613113, 113.28623664892649, 47.636751585431476, 62.65566872378612 
167.07543693790274, -0.5726372404540635, 22.808169472264954, 112.59539876467065, 47.66047043976174, 62.65540085850547 
166.1519253376623, -0.5167261726486639, 22.80817215831688, 111.90447207735961, 47.68724036062392, 62.655098567697486 
165.22883227115824, -0.4544847827446256, 22.808174824165633, 111.21344538788713, 47.71705792194096, 62.65476190166821 
164.306200189642, -0.3859322394126736, 22.80817736489865, 110.5223073474553, 47.74991930795732, 62.654390916598075 
163.38407069773854, -0.3110896097857477, 22.808179665455388, 109.83104644111076, 47.78582031383485, 62.65398567458215 
162.46248447734632, -0.22997984020797171, 22.808181600804417, 109.13965097119215, 47.824756346303815, 62.653546243673716 
161.5414812132733, -0.14262773543028123, 22.80818303613608, 108.44810904067981, 47.86672242436739, 62.653072697932 
160.6210995207292, -0.04905993631278082, 22.80818382707026, 107.75640853643712, 47.91171318005755, 62.65256511747304 
159.70137687478754, 0.05069510390204299, 22.80818381987923, 107.06453711233384, 47.959722859240514, 62.65202358852453 
158.78234954192192, 0.1566071446777395, 22.808182851725107, 106.37248217224052, 48.01074532246939, 62.65144820348362 
157.8640525137132, 0.2686441845629048, 22.808180750911692, 105.68023085288327, 48.06477404588157, 62.65083906097817 
156.94651944281466, 0.3867724887870146, 22.808177337150333, 104.98777000654755, 48.12180212213854, 62.6501962659313 
156.0297825812534, 0.5109566179965399, 22.80817242183942, 104.29508618361919, 48.18182226140511, 62.6495199296286 
155.11387272113762, 0.64115945805243, 22.80816580835721, 103.6021656149506, 48.24482679236552, 62.64881016978836 
154.19881913782936, 0.7773422508080332, 22.808157292367536, 102.90899419403935, 48.3108076632731, 62.648067110634585 
153.28464953563233, 0.9194646257848913, 22.808146662138018, 102.21555745900623, 48.37975644303046, 62.64729088297253 
152.37138999603744, 1.0674846326623633, 22.808133698870403, 101.52184057435882, 48.45166432229677, 62.64648162426636 
151.45906492855602, 1.2213587744960195, 22.80811817704242, 100.82782831252652, 48.526522114618786, 62.64563947871946 
150.54769702416436, 1.3810420415789377, 22.808099864760987, 100.13350503515211, 48.60432025758158, 62.644764597356534 
149.63730721137205, 1.5464879458596656, 22.80807852412599, 99.43885467412434, 48.68504881397561, 62.643857138107556 
148.72791461491897, 1.7176485558304466, 22.80805391160443, 98.74386071233539, 48.76869747297569, 62.64291726589349 
147.81953651709662, 1.8944745317993095, 22.808025778414166, 98.0485061641462, 48.85525555132791, 62.64194515271347 
146.9121883216808, 2.076915161460282, 22.807993870917027, 97.35277355554257, 48.94471199454014, 62.64094097773341 
146.00588352045494, 2.2649183956765433, 22.807957931020574, 96.65664490396271, 49.03705537807163, 62.63990492737538 
145.10063366229605, 2.4584308843922225, 22.807917696588035, 95.96010169777803, 49.13227390851672, 62.63883719540824 
144.19644832478616, 2.6573980125899164, 22.807872901855923, 95.26312487540623, 49.23035542477841, 62.63773798303876 
143.29333508830794, 2.861763936212245, 22.8078232778587, 94.56569480403643, 49.33128739922606, 62.6366074990033 
142.39129951257334, 3.0714716179675308, 22.807768552860004, 93.8677912579438, 49.435056938832474, 62.635445959659705 
141.49034511553108, 3.2864628629413697, 22.807708452789836, 93.16939339637113, 49.54165078628478, 62.63425358907928 
140.5904733545909, 3.50667835393809, 22.807642701687072, 92.47047974095332, 49.65105532106356, 62.63303061913856 
139.69168361009855, 3.7320576864779444, 22.807571022146888, 91.77102815265957, 49.76325656048438, 62.631777289610675 
138.79397317099, 3.9625394033785817, 22.80749313577225, 91.07101580822722, 49.87824016069583, 62.630493848256286 
137.89733722254996, 4.198061028851417, 22.80740876362917, 90.37041917605981, 49.995991417627806, 62.629180550913176 
137.0017688361955, 4.438559102046364, 22.807317626704847, 89.66921399156084, 50.11649526788369, 62.62783766158543 
136.10725896120223, 4.683969209980922, 22.807219446368293, 88.96737523187282, 50.239736289569805, 62.62646545253079 
135.21379641828824, 4.934226019792332, 22.80711394483276, 88.26487708999109, 50.36569870305535, 62.625064204346664 
134.3213678949686, 5.189263310254385, 22.80700084561932, 87.56169294821876, 50.494366371655566, 62.623634206054405 
133.4299579425911, 5.449014002503264, 22.806879874021078, 86.85779535092941, 50.625722802231195, 62.62217575518146 
132.5395489749627, 5.713410189919795, 22.806750757567354, 86.15315597660096, 50.75975114569631, 62.620689157841426 
131.65012126847628, 5.982383167118107, 22.8066132264872, 85.44774560908392, 50.89643419742685, 62.6191747288115 
130.7616529636448, 6.255863457994126, 22.806467014171655, 84.74153410806449, 51.035754397561995, 62.61763279160744 
129.87412006795245, 6.533780842789615, 22.80631185763426, 84.0344903786818, 51.17769383118951, 62.61606367855528 
128.98749645993104, 6.816064384130986, 22.806147497968965, 83.32658234025642, 51.32223422840708, 62.61446773086028 
128.1017538943714, 7.102642452004403, 22.805973680805053, 82.61777689408544, 51.46935696424998, 62.61284529867205 
127.21686200858102, 7.393442747632046, 22.8057901567584, 81.90803989025754, 51.61904305847639, 62.611196741146614 
126.33278832960013, 7.688392326216878, 22.80559668187848, 81.19733609343875, 51.77127317520035, 62.60952242650406 
125.44949828229139, 7.987417618525964, 22.805393018090456, 80.48562914757845, 51.9260276223625, 62.607822732082504 
124.56695519821947, 8.290444451285424, 22.80517893363199, 79.77288153948159, 52.08328635102838, 62.60609804438782 
123.68512032524066, 8.5973980663622, 22.804954203483863, 79.05905456119191, 52.24302895450324, 62.604348759138624 
122.80395283772431, 8.908203138710816, 22.804718609794186, 78.34410827112734, 52.40523466725258, 62.602575281306706 
121.92340984733302, 9.222783793065433, 22.80447194229536, 77.62800145390693, 52.56988236361643, 62.600778025152714 
121.04344641428935, 9.541063619360175, 22.804213998713443, 76.91069157880565, 52.73695055630563, 62.59895741425639 
120.16401555906363, 9.862965686862633, 22.80394458516919, 76.19213475677046, 52.90641739466732, 62.597113881541794 
119.28506827441895, 10.188412557008121, 22.803663516570474, 75.47228569592795, 53.07826066270678, 62.595247869296976 
118.4065535377551, 10.517326294923969, 22.803370616995245, 74.75109765551144, 53.25245777685172, 62.593359829187726 
117.52841832369772, 10.849628479635388, 22.80306572006487, 74.02852239813133, 53.42898578344509, 62.59145022226595 
116.6506076168825, 11.185240212946542, 22.802748669307082, 73.30451014030939, 53.60782135595152, 62.589519518971315 
115.77306442489105, 11.524082126991884, 22.802419318508182, 72.57900950119505, 53.78894079186175, 62.587568199127304 
114.8957297912979, 11.866074390455239, 22.802077532054028, 71.85196744937643, 53.97232000927911, 62.58559675193053 
114.01854280879621, 12.211136713455181, 22.80172318525925, 71.12332924769697, 54.157934543171166, 62.5836056759335 
113.14144063237232, 12.559188351097555, 22.801356164684382, 70.39303839598286, 54.34575954126862, 62.58159547902082 
112.26435849250727, 12.910148105696907, 22.800976368440423, 69.66103657158412, 54.535769759593265, 62.579566678378484 
111.38722970838838, 13.263934327670777, 22.80058370648032, 68.9272635676263, 54.7279395575956, 62.57751980045606 
110.50998570111993, 13.6204649151117, 22.800178100877197, 68.19165722886697, 54.92224289288158, 62.575455380921895 
109.63255600692888, 13.979657312043468, 22.79975948608863, 67.45415338504563, 55.11865331550757, 62.573373964610866 
108.75486829036701, 14.341428505369652, 22.79932780920702, 66.71468578161128, 55.317143961821145, 62.57127610546504 
107.87684835751911, 14.705695020523335, 22.79888303019526, 65.97318600770775, 55.517687547823975, 62.569162366466486 
106.9984201692316, 15.072372915828801, 22.79842512210769, 65.2295834212912, 55.72025636203294, 62.567033319562796 
106.11950585438547, 15.441377775586712, 22.79795407129597, 64.48380507124956, 55.92482225781292, 62.564889545584684 
105.24002572324203, 15.812624701896066, 22.797469877599376, 63.73577561638873, 56.13135664515474, 62.56273163415594 
