# MEX_intpoint_lon [deg], MEX_intpoint_lat [deg], MEX_intpoint_angle [deg], TGO_intpoint_lon [deg], TGO_intpoint_lat [deg], TGO_intpoint_angle [deg] 
-104.04249346826113, 20.444419048402615, 22.359958019725514, -151.80616117769353, 59.106679884615204, 62.52880759948371 
-104.94975068489781, 20.074704967675427, 22.3605482246408, -152.6032016094288, 58.885234110036976, 62.53100774819401 
-105.85531362451621, 19.70600076053975, 22.361127979902264, -153.3966941890077, 58.66527771571333, 62.53320224820554 
-106.75927423337558, 19.338396213392272, 22.36169712140363, -154.18675248897097, 58.44684615440183, 62.53539043498502 
-107.66172312205497, 18.97198044928344, 22.362255497689123, -154.97348648472055, 58.229974252174515, 62.53757165048273 
-108.56274953750226, 18.606841944912087, 22.362802969973032, -155.75700267718116, 58.01469622677803, 62.539745243318464 
-109.46244133651258, 18.243068546889063, 22.363339412143926, -156.53740421105, 57.801045704986436, 62.54191056895905 
-110.36088496050789, 17.880747487232906, 22.363864710753838, -157.31479098876798, 57.589055738994254, 62.54406698988882 
-111.2581654114997, 17.51996539806247, 22.36437876499201, -158.08925978035063, 57.37875882189488, 62.54621387577249 
-112.15436622912435, 17.160808325453928, 22.364881486643792, -158.86090432921225, 57.17018690228733, 62.54835060361011 
-113.04956946864857, 16.803361742431257, 22.365372800034308, -159.62981545412015, 56.96337139805268, 62.550476557884636 
-113.94385567985167, 16.44771056106176, 22.365852641957385, -160.39608114741176, 56.758343209339166, 62.55259113070203 
-114.83730388669775, 16.093939143629672, 22.366320961589626, -161.15978666960686, 56.55513273079308, 62.554693721923364 
-115.72999156771986, 15.742131312862693, 22.36677772038999, -161.92101464054562, 56.353769863071335, 62.55678373928994 
-116.6219946370447, 15.39237036118844, 22.36722289198472, -162.67984512717874, 56.154284023669156, 62.55886059854047 
-117.51338742599418, 15.044739058998816, 22.367656462038266, -163.43635572813582, 55.95670415709546, 62.56092372352095 
-118.40424266520773, 14.69931966190254, 22.36807842810991, -164.190621655193, 55.76105874442648, 62.56297254628711 
-119.29463146723484, 14.356193916947086, 22.368488799496703, -164.94271581175934, 55.567375812266974, 62.56500650719962 
-120.18462330955577, 14.01544306779333, 22.368887597062727, -165.6927088684977, 55.37568294114702, 62.56702505501164 
-121.07428601799357, 13.677147858827189, 22.36927485305499, -166.44066933619237, 55.18600727338087, 62.56902764694979 
-121.96368575048777, 13.341388538194545, 22.369650610906255, -167.18666363597308, 54.99837552041357, 62.57101374878724 
-122.85288698120598, 13.008244859746778, 22.37001492502507, -167.93075616700105, 54.81281396967919, 62.5729828349104 
-123.74195248497591, 12.677796083886069, 22.370367860573182, -168.67300937171984, 54.62934849099427, 62.57493438837833 
-124.63094332202607, 12.350120977300854, 22.37070949323091, -169.41348379876993, 54.448004542508215, 62.57686790097545 
-125.5199188230292, 12.025297811583526, 22.371039908950525, -170.15223816366358, 54.26880717623185, 62.57878287325739 
-126.40893657444812, 11.703404360723964, 22.371359203698102, -170.88932940731192, 54.091781043164545, 62.58067881459042 
-127.29805240418924, 11.384517897473804, 22.371667483184265, -171.62481275249428, 53.916950398038786, 62.582555243184274 
-128.18732036757336, 11.068715188578366, 22.371964862584047, -172.35874175835562, 53.74433910370104, 62.58441168611872 
-129.0767927336401, 10.756072488874326, 22.372251466246365, -173.0911683730155, 53.57397063514627, 62.5862476793638 
-129.96651997180507, 10.446665534253352, 22.372527427393454, -173.82214298436872, 53.4058680832233, 62.58806276779424 
-130.85655073889592, 10.140569533493082, 22.372792887810686, -174.55171446915438, 53.24005415802678, 62.58985650519754 
-131.74693186659542, 9.83785915895916, 22.373047997527134, -175.2799302403681, 53.076551191991825, 62.59162845427691 
-132.63770834932646, 9.538608536183384, 22.37329291448744, -176.00683629308872, 52.91538114270571, 62.59337818664791 
-133.52892333261673, 9.242891232325173, 22.373527804215268, -176.73247724878794, 52.75656559545117, 62.595105282830424 
-134.42061810198405, 8.950780243525339, 22.37375283946891, -177.4568963981892, 52.60012576549497, 62.596809332234564 
-135.3128320723891, 8.66234798116311, 22.373968199889475, -178.1801357427394, 52.44608250013482, 62.598489933142254 
-136.2056027783046, 8.377666257029405, 22.37417407164207, -178.90223603475414, 52.2944562805172, 62.60014669268343 
-137.09896586445194, 8.096806267431578, 22.374370647050593, -179.62323681629542, 52.1452672232386, 62.60177922680768 
-137.9929550772625, 7.819838576246641, 22.37455812422642, 179.65682354316215, 51.998535081741394, 62.60338716025134 
-138.8876022571212, 7.5468330969424136, 22.37473670669169, 178.93790781022238, 51.8542792475159, 62.60497012650036 
-139.78293733145222, 7.277859073588341, 22.374906602997523, 178.2199798521641, 51.71251875111943, 62.60652776774882 
-140.6789883087115, 7.012985060879606, 22.375068026337793, 177.5030046025934, 51.573272263022574, 62.608059734853654 
-141.5757812733496, 6.752278903200943, 22.375221194158872, 176.78694802810338, 51.43655809429295, 62.60956568728579 
-142.47334038181253, 6.4958077127585865, 22.37536632776596, 176.07177709589675, 51.30239419712607, 62.6110452930772 
-143.37168785964795, 6.24363784681122, 22.37550365192641, 175.35745974232526, 51.17079816523268, 62.612498228765396 
-144.27084399978673, 5.9958348840333064, 22.37563339447068, 174.64396484230605, 51.041787234091444, 62.61392417933404 
-145.17082716206872, 5.752463600046428, 22.375755785891375, 173.93126217957249, 50.9153782810759, 62.61532283815141 
-146.07165377408342, 5.513587942156882, 22.375871058940927, 173.2193224177221, 50.791587825464, 62.61669390690527 
-146.97333833339655, 5.279271003339884, 22.375979448228424, 172.50811707202342, 50.670432028338226, 62.61803709553615 
-147.87589341123086, 5.049574995513601, 22.376081189816176, 171.79761848194647, 50.551926692384434, 62.619352122167705 
-148.77932965767235, 4.824561222148095, 22.37617652081646, 171.0877997843828, 50.43608726159662, 62.6206387130353 
-149.68365580846842, 4.6042900502571245, 22.3762656789891, 170.378634887522, 50.32292882089532, 62.62189660241267 
-150.58887869348612, 4.388820881822684, 22.37634890234029, 169.6700984453529, 50.21246609566644, 62.62312553253694 
-151.4950032468945, 4.17821212470471, 22.37642642872322, 168.9621658327605, 50.104713451227425, 62.624325253532284 
-152.40203251913434, 3.9725211630903714, 22.37649849544115, 168.25481312118822, 49.99968489222764, 62.62549552333224 
-153.309967690735, 3.771804327539693, 22.37656533885325, 167.54801705483885, 49.897394061988884, 62.626636107601044 
-154.2188080880359, 3.5761168646862065, 22.37662719398393, 166.84175502738722, 49.7978542417928, 62.627746779654345 
-155.12855120086599, 3.3855129066532164, 22.37668429413599, 166.13600505917904, 49.70107835012058, 62.628827320379145 
-156.0391927022317, 3.2000454402482648, 22.376736870508314, 165.4307457748918, 49.60707894185131, 62.62987751815336 
-156.95072647005827, 3.0197662760000155, 22.376785151818325, 164.72595638163418, 49.51586820742402, 62.63089716876529 
-157.86314461102685, 2.844726017103261, 22.376829363930078, 164.0216166474614, 49.42745797196927, 62.63188607533314 
-158.77643748654285, 2.6749740283393644, 22.376869729488046, 163.31770688028547, 49.34185969441517, 62.63284404822466 
-159.69059374086723, 2.5105584050405954, 22.37690646755753, 162.614207907159, 49.259084466573135, 62.63377090497711 
-160.6056003314364, 2.351525942167865, 22.376939793271756, 161.91110105391354, 49.17914301220784, 62.63466647021819 
-161.52144256138993, 2.1979221035725445, 22.376969917486445, 161.20836812513295, 49.10204568609648, 62.63553057558745 
-162.43810411432042, 2.0497909915133428, 22.37699704644213, 160.505991384444, 49.0278024730816, 62.63636305965871 
-163.35556709125208, 1.9071753165001302, 22.377021381434744, 159.80395353510644, 48.956422987121734, 62.63716376786378 
-164.27381204984928, 1.7701163675365716, 22.37704311849485, 159.10223770088595, 48.88791647034423, 62.63793255241753 
-165.19281804584776, 1.6386539828338222, 22.377062448076096, 158.40082740719382, 48.82229179210414, 62.63866927224426 
-166.11256267669614, 1.5128265210669702, 22.377079554753003, 157.69970656247781, 48.75955744805303, 62.63937379290591 
-167.03302212738666, 1.3926708332459454, 22.377094616928883, 156.99885943984987, 48.699721559221274, 62.64004598653213 
-167.95417121844724, 1.2782222352715895, 22.377107806553916, 156.29827065893548, 48.64279187111751, 62.64068573175245 
-168.87598345605986, 1.169514481246972, 22.377119288854, 155.59792516793183, 48.588775752848505, 62.641292913630096 
-169.7984310842624, 1.0665797376126935, 22.377129222070582, 154.89780822586107, 48.53768019626249, 62.641867423598896 
-170.72148513918415, 0.9694485581736583, 22.377137757211944, 154.19790538500604, 48.489511815119286, 62.642409159401865 
-171.6451155052573, 0.878149860083029, 22.377145037816152, 153.4982024735162, 48.4442768442898, 62.642918025032884 
-172.56929097333955, 0.7927109008473172, 22.37715119972607, 152.79868557817198, 48.401981138987686, 62.64339393068077 
-173.49397930067653, 0.7131572564142121, 22.37715637087671, 152.09934102729596, 48.36263017403582, 62.64383679267641 
-174.41914727262449, 0.6395128004025794, 22.37716067109513, 151.4001553737999, 48.326229043169825, 62.64424653344256 
-175.3447607660478, 0.5717996845312444, 22.377164211913374, 150.70111537835675, 48.292782458380955, 62.644623081446916 
-176.27078481429936, 0.5100383203003843, 22.377167096394352, 150.00220799268757, 48.262294749300494, 62.64496637115829 
-177.19718367368472, 0.4542473619762733, 22.377169418971196, 149.3034203429529, 48.23476986262737, 62.64527634300588 
-178.12392089130597, 0.4044436909267655, 22.377171265300152, 148.60473971323893, 48.21021136160095, 62.6455529433419 
-179.05095937417556, 0.3606424013514224, 22.377172712127315, 147.90615352912872, 48.18862242552063, 62.64579612440798 
-179.97826145948426, 0.32285678744656604, 22.377173827169134, 147.20764934134948, 48.170005849313455, 62.64600584430435 
179.09421101409612, 0.2910983320414845, 22.37717466900727, 146.50921480948642, 48.154364043151276, 62.64618206696322 
178.16649663419955, 0.26537669673816716, 22.37717528699746, 145.81083768575417, 48.141699032118545, 62.646324762125396 
177.2386343417705, 0.24569971358275106, 22.37717572119295, 145.11250579881724, 48.1320124559316, 62.64643390532059 
176.3106633574173, 0.2320733782923905, 22.377176002282265, 144.41420703765058, 48.12530556871043, 62.64650947785163 
175.38262310724815, 0.22450184505716034, 22.377176151541555, 143.71592933543184, 48.12157923880344, 62.64655146678202 
174.4545531483265, 0.22298742293178025, 22.37717618080164, 143.0176606534566, 48.12083394866596, 62.64655986492761 
173.52649309388303, 0.2275305738276669, 22.37717609242958, 142.3193889650684, 48.12306979479241, 62.64653467085182 
172.59848253842296, 0.23812991211105988, 22.377175879325062, 141.62110223959496, 48.12828648770283, 62.64647588886462 
171.67056098286875, 0.2547822058083546, 22.3771755249314, 140.9227884262823, 48.13648335198359, 62.64638352902555 
170.74276775987616, 0.27748237941523207, 22.377175003261204, 140.22443543821862, 48.147659326381905, 62.64625760715013 
169.8151419594628, 0.3062235183014574, 22.37717427893673, 139.52603113623888, 48.16181296395438, 62.646098144820364 
168.88772235508628, 0.3409968746985856, 22.377173307244806, 138.8275633128024, 48.17894243226884, 62.64590516939872 
167.9605473303062, 0.38179187525358266, 22.377172034206254, 138.1290196758344, 48.19904551365879, 62.64567871404602 
167.03365480616395, 0.4285961301264246, 22.377170396659732, 137.43038783252302, 48.222119605530075, 62.64541881774291 
166.10708216940898, 0.48139544360594755, 22.377168322359935, 136.73165527306315, 48.24816172071853, 62.64512552531488 
165.1808662016981, 0.5401738262134791, 22.377165730089903, 136.0328093543381, 48.27716848789768, 62.644798887461 
164.25504300989, 0.6049135082600737, 22.377162529787398, 135.33383728352982, 48.309136152035364, 62.644438960786054 
163.3296479575522, 0.6755949548189526, 22.37715862268517, 134.6347261016491, 48.34406057489776, 62.644045807836235 
162.40471559779377, 0.7521968820710996, 22.377153901464823, 133.93546266697535, 48.381937235599295, 62.64361949713798 
161.48027960753026, 0.8346962749783273, 22.37714825042422, 133.23603363839698, 48.42276123119696, 62.64316010324037 
160.5563727232828, 0.9230684062347281, 22.377141545658098, 132.5364254586422, 48.46652727732684, 62.64266770676049 
159.633026678607, 1.0172868564442086, 22.377133655251757, 131.83662433738988, 48.513229708881276, 62.642142394432106 
158.71027214323993, 1.117323535468822, 22.37712443948734, 131.13661623425003, 48.56286248072406, 62.641584259157 
157.7881386640484, 1.2231487048898777, 22.37711375106281, 130.43638684160288, 48.61541916844175, 62.6409934000596 
156.8666546078532, 1.3347310015212681, 22.377101435322924, 129.73592156728552, 48.67089296912833, 62.64036992254404 
155.9458471061979, 1.452037461912225, 22.377087330502203, 129.0352055171143, 48.72927670220085, 62.639713938353964 
155.0257420021238, 1.57503354777461, 22.37707126797939, 128.3342234772308, 48.790562810243, 62.63902556563492 
154.1063637990035, 1.7036831722681245, 22.377053072543156, 127.63295989625917, 48.854743359873915, 62.63830492899898 
153.18773561148134, 1.8379487270752837, 22.377032562668703, 126.93139886726166, 48.92181004263891, 62.63755215959164 
152.2698791185576, 1.977791110196769, 22.377009550804797, 126.22952410947883, 48.99175417591904, 62.63676739516101 
151.35281451884978, 2.1231697543966153, 22.376983843670974, 125.52731894984063, 49.06456670385603, 62.635950780128375 
150.43656048805377, 2.2740426562261273, 22.376955242564424, 124.8247663042336, 49.140238198288806, 62.635102465661085 
149.5211341386229, 2.4303664055547336, 22.376923543676302, 124.12184865850924, 49.21875885969823, 62.6342226097469 
148.60655098167405, 2.592096215535768, 22.37688853841676, 123.41854804921742, 49.30011851815583, 62.63331137726949 
147.6928248911238, 2.759185952935069, 22.376850013748626, 122.7148460440489, 49.384306634272534, 62.63236894008555 
146.7799680700511, 2.931588168750597, 22.37680775252898, 122.01072372196973, 49.47131230014331, 62.63139547710266 
145.86799101927537, 3.109254129051539, 22.376761533858396, 121.306161653029, 49.56112424028302, 62.63039117435833 
144.9569025081339, 3.292133845965989, 22.376711133437222, 120.60113987782276, 49.65373081254923, 62.62935622509962 
144.04670954743557, 3.480176108747226, 22.376656323928582, 119.89563788659343, 49.74912000904683, 62.62829082986322 
143.13741736456228, 3.673328514849443, 22.376596875327472, 119.18963459794519, 49.84727945701004, 62.62719519655594 
142.22902938068466, 3.8715375009451534, 22.376532555335544, 118.48310833715408, 49.94819641965614, 62.62606954053527 
141.32154719005288, 4.074748373817626, 22.37646312974111, 117.77603681405107, 50.05185779700592, 62.62491408468983 
140.41497054131878, 4.2829053410634526, 22.376388362803787, 117.06839710045493, 50.15825012666552, 62.623729059519675 
139.50929732084225, 4.495951541541767, 22.376308017643275, 116.36016560713112, 50.26735958456346, 62.62251470321609 
138.6045235379286, 4.713829075508602, 22.37622185663191, 115.65131806025174, 50.37917198563748, 62.621271261740425 
137.70064331194288, 4.936479034376635, 22.376129641790197, 114.94182947733063, 50.493672784464934, 62.61999898890244 
136.79764886124138, 5.163841530042605, 22.37603113518511, 114.23167414260647, 50.61084707583028, 62.61869814643722 
135.89553049385938, 5.395855723726939, 22.37592609933034, 113.52082558184546, 50.730679595223414, 62.61736900408089 
134.99427659989124, 5.632459854271917, 22.37581429758823, 112.80925653653416, 50.85315471926195, 62.61601183964496 
134.09387364549647, 5.873591265847454, 22.37569549457265, 112.09693893743169, 50.97825646603053, 62.61462693908848 
133.19430616846512, 6.119186435015379, 22.375569456552427, 111.38384387744918, 51.10596849532994, 62.61321459658875 
132.29555677527244, 6.36918099710591, 22.37543595185467, 110.66994158382282, 51.23627410882863, 62.61177511460953 
131.39760613955448, 6.623509771861884, 22.37529475126764, 109.95520138954585, 51.36915625010884, 62.61030880396696 
130.50043300193323, 6.882106788309291, 22.375145628442407, 109.23959170402259, 51.50459750459939, 62.608815983892846 
129.60401417112192, 7.144905308814508, 22.374988360292978, 108.5230799829071, 51.642580099386976, 62.60729698209528 
128.70832452623986, 7.41183785229148, 22.37482272739413, 107.80563269708615, 51.78308590289719, 62.60575213481601 
127.8133370202675, 7.682836216524287, 22.37464851437673, 107.08721530076572, 51.92609642443665, 62.604181786884766 
126.9190226845729, 7.957831499572958, 22.374465510319762, 106.36779219861765, 52.07159281358678, 62.60258629177012 
126.02535063444238, 8.236754120232977, 22.374273509138572, 105.6473267119416, 52.21955585944018, 62.60096601162663 
125.13228807554948, 8.519533837520866, 22.374072309968984, 104.92578104379557, 52.36996598966901, 62.5993213173383 
124.23980031129787, 8.806099769161149, 22.373861717546596, 104.20311624304594, 52.52280326941602, 62.59765258855768 
123.34785075097663, 9.09638040905159, 22.373641542580863, 103.4792921672867, 52.678047399996736, 62.59596021374126 
122.45640091866814, 9.390303643686638, 22.37341160212342, 102.7542674445742, 52.835677717402525, 62.594244590179805 
121.56541046285204, 9.687796767520327, 22.37317171993013, 102.02799943392296, 52.99567319059239, 62.59250612402467 
120.6748371666506, 9.988786497252962, 22.372921726816507, 101.3004441845046, 53.15801241956228, 62.590745230308805 
119.78463695866571, 10.293198985027125, 22.372661461005805, 100.57155639349048, 53.32267363317886, 62.58896233296313 
118.8947639243591, 10.600959830521377, 22.37239076846964, 99.84128936247537, 53.48963468676531, 62.58715786482752 
118.00517031793272, 10.91199409193147, 22.372109503260283, 99.10959495241764, 53.65887305942555, 62.58533226765659 
117.11580657466924, 11.22622629583094, 22.37181752783459, 98.37642353702883, 53.83036585109293, 62.58348599211991 
116.22662132369614, 11.543580445905238, 22.371514713368796, 97.64172395454185, 54.00408977928878, 62.58161949779652 
115.33756140114285, 11.863980030554657, 22.371200940063957, 96.90544345778576, 54.18002117557574, 62.57973325316367 
114.4485718636625, 12.187348029363857, 22.37087609744159, 96.16752766249067, 54.3581359816899, 62.57782773557948 
113.55959600229673, 12.513606918436889, 22.370540084628992, 95.42792049374486, 54.53840974533525, 62.57590343125974 
112.67057535666498, 12.842678674598854, 22.37019281063402, 94.6865641305219, 54.72081761562326, 62.573960835247966 
111.78144972946596, 13.174484778466377, 22.36983419460883, 93.94339894819348, 54.905334338139326, 62.57200045137942 
110.89215720128313, 13.508946216391411, 22.369464166102293, 93.19836345893971, 55.091934249617466, 62.57002279223862 
110.00263414569228, 13.845983481283696, 22.36908266530067, 92.45139424996633, 55.28059127220335, 62.56802837910979 
109.11281524467424, 14.185516572319248, 22.368689643256282, 91.70242591943413, 55.47127890728513, 62.566017741920994 
108.22263350434093, 14.527464993543726, 22.368285062103787, 90.95139101000305, 55.66397022887042, 62.56399141918106 
107.33202027099055, 14.871747751380704, 22.36786889526379, 90.19821993989032, 55.858637876486824, 62.56194995790979 
106.44090524751093, 15.218283351056744, 22.367441127633562, 89.44284093133793, 56.055254047582316, 62.559893913560735 
105.54921651015945, 15.56698979195641, 22.367001755764424, 88.6851799363824, 56.25379048940064, 62.55782384993713 
104.65688052575113, 15.91778456192197, 22.366550788025737, 87.9251605598153, 56.45421849030576, 62.55574033910052 
