# MEX_intpoint_lon [deg], MEX_intpoint_lat [deg], MEX_intpoint_angle [deg], TGO_intpoint_lon [deg], TGO_intpoint_lat [deg], TGO_intpoint_angle [deg] 
-104.55598704729618, 20.56271857097031, 22.668284527906767, -170.27777706948186, 59.047762341738256, 62.53121957379269 
-105.45380491690719, 20.177026623954653, 22.66891236593609, -171.07144259188232, 58.82451674007588, 62.53344033067534 
-106.34991539766132, 19.792433872736076, 22.66952868362568, -171.86158768238744, 58.60278081165196, 62.53565533300364 
-107.24441709029007, 19.40903182541525, 22.670133307027243, -172.64832598029244, 58.382589925139854, 62.5378639101251 
-108.13740705658277, 19.026911310869544, 22.670726076141396, -173.43176749102028, 58.16397882723482, 62.540065397996244 
-109.02898079682282, 18.64616249955678, 22.671306844937178, -174.2120187117097, 57.946981660978295, 62.54225913936952 
-109.91923222847747, 18.266874923411656, 22.671875481354718, -174.9891827521718, 57.73163198306462, 62.54444448397247 
-110.80825366600074, 17.889137494800767, 22.672431867291188, -175.76335945136543, 57.51796278017862, 62.546620788679405 
-111.69613580162202, 17.51303852450394, 22.672975898569927, -176.53464548954273, 57.30600648441063, 62.548787417675136 
-112.58296768700004, 17.13866573869226, 22.673507484893005, -177.30313449621366, 57.0957949877928, 62.55094374261093 
-113.46883671563391, 16.766106294874266, 22.67402654977717, -178.06891715407784, 56.8873596559986, 62.553089142753 
-114.35382860593047, 16.3954467967846, 22.674533030473437, -178.83208129906845, 56.68073134124555, 62.555223005122826 
-115.23802738483724, 16.02677330819025, 22.675026877870405, -179.59271201665229, 56.47594039443914, 62.55734472463027 
-116.12151537195881, 15.660171365591692, 22.675508056381403, 179.64910826547484, 56.27301667659395, 62.55945370419853 
-117.00437316408285, 15.295725989797647, 22.675976543815814, 178.89329968815977, 56.071989569566504, 62.561549354881755 
-117.88667962005027, 14.933521696353514, 22.67643233123462, 178.1397848748973, 55.87288798613262, 62.56363109597495 
-118.76851184591213, 14.573642504805386, 22.676875422790424, 177.38848884913892, 55.67574037944041, 62.56569835511627 
-119.64994518032391, 14.216171946782298, 22.677305835552254, 176.63933895467892, 55.480574751868645, 62.567750568381975 
-120.53105318013453, 13.861193072881523, 22.677723599315403, 175.89226477899408, 55.287418663318796, 62.56978718037381 
-121.411907606136, 13.508788458342389, 22.678128756396426, 175.14719807941893, 55.0962992389678, 62.57180764429913 
-122.2925784089455, 13.15904020749587, 22.678521361413804, 174.40407271204057, 54.90724317650707, 62.573811422043725 
-123.17313371499993, 12.81202995697839, 22.67890148105447, 173.662824563202, 54.72027675289258, 62.57579798423755 
-124.05363981264783, 12.467838877699633, 22.679269193826492, 172.92339148350558, 54.535425830629045, 62.57776681031332 
-124.93416113833275, 12.126547675555535, 22.67962458979839, 172.18571322421323, 54.35271586361087, 62.57971738855811 
-125.81476026286562, 11.788236590879126, 22.67996777032523, 171.44973137594226, 54.17217190254089, 62.581649216158375 
-126.69549787779175, 11.452985396623207, 22.680298847762202, 170.7153893095609, 53.993818599947446, 62.58356179923776 
-127.57643278186411, 11.12087339527029, 22.680617945165636, 169.98263211918874, 53.817680214819184, 62.58545465288887 
-128.45762186763824, 10.79197941446701, 22.680925195982343, 169.25140656721408, 53.64378061687613, 62.587327301198236 
-129.3391201082129, 10.46638180138141, 22.68122074372729, 168.52166103124017, 53.4721432904948, 62.58917927726505 
-130.22098054414312, 10.14415841578359, 22.68150474165025, 167.7933454528779, 53.30279133830458, 62.591010123213756 
-131.1032542705593, 9.82538662185135, 22.681777352391958, 167.06641128830458, 53.135747484471345, 62.59281939020075 
-131.98599042453046, 9.510143278704897, 22.682038747629907, 166.34081146051238, 52.971034077684145, 62.59460663841486 
-132.86923617271464, 9.198504729675781, 22.682289107714684, 165.6165003131717, 52.80867309385989, 62.59637143707266 
-133.75303669934362, 8.890546790317849, 22.682528621296985, 164.89343356603922, 52.6486861385803, 62.59811336440787 
-134.63743519459487, 8.586344735169432, 22.68275748494594, 164.17156827184206, 52.49109444927495, 62.59983200765554 
-135.5224728434063, 8.285973283278325, 22.682975902759335, 163.45086277457258, 52.335918897163666, 62.60152696303107 
-136.40818881479424, 7.989506582503142, 22.683184085966065, 162.73127666913098, 52.18317998897078, 62.60319783570438 
-137.29462025173908, 7.697018192606953, 22.68338225252155, 162.0127707622555, 52.032897868423746, 62.60484423976904 
-138.18180226170486, 7.408581067161254, 22.683570626696444, 161.29530703468228, 51.88509231754759, 62.60646579820703 
-139.0697679078651, 7.1242675342806345, 22.68374943865933, 160.57884860447916, 51.73978275776654, 62.60806214284902 
-139.95854820110713, 6.8441492762112635, 22.68391892405394, 159.8633596915006, 51.59698825082389, 62.60963291433045 
-140.84817209289193, 6.568297307798251, 22.684079323571357, 159.14880558291202, 51.45672749953027, 62.61117776204357 
-141.7386664690478, 6.296781953860074, 22.684230882517866, 158.43515259973546, 51.31901884835061, 62.61269634408578 
-142.63005614457842, 6.029672825500411, 22.684373850379004, 157.72236806436862, 51.18388028383955, 62.61418832720442 
-143.52236385956792, 5.767038795390559, 22.6845084803803, 157.0104202690331, 51.05132943493451, 62.615653386737925 
-144.41561027626616, 5.50894797205836, 22.684635029045452, 156.29927844510803, 50.92138357311555, 62.617091206554214 
-145.30981397743923, 5.255467673222122, 22.684753755752332, 155.5889127333086, 50.79405961244085, 62.6185014789858 
-146.2049914660697, 5.006664398210971, 22.684864922287556, 154.8792941546686, 50.669374109466105, 62.61988390476236 
-147.1011571664928, 4.76260379951555, 22.684968792400117, 154.17039458229038, 50.547343263056106, 62.62123819294077 
-147.9983234270527, 4.523350653516125, 22.685065631354657, 153.46218671382482, 50.427982914096205, 62.62256406083271 
-148.89650052436423, 4.288968830437516, 22.685155705485133, 152.7546440446469, 50.31130854511154, 62.623861233930356 
-149.79569666926272, 4.059521263583351, 22.68523928174919, 152.04774084169344, 50.19733527980111, 62.625129445830154 
-150.69591801452427, 3.8350699179046184, 22.685316627284042, 151.34145211793074, 50.086077882493974, 62.626368438154806 
-151.59716866443603, 3.615675757960306, 22.68538800896441, 150.635753607422, 49.97755075753446, 62.62757796047424 
-152.49945068629418, 3.4013987153303806, 22.68545369296303, 149.9306217409644, 49.87176794860288, 62.628757770224816 
-153.40276412390423, 3.1922976555440274, 22.685513944314327, 149.22603362226835, 49.76874313797838, 62.629907632627855 
-154.3071070131546, 2.9884303445884792, 22.68556902648193, 148.52196700465188, 49.66848964574998, 62.63102732060756 
-155.21247539973095, 2.789853415065924, 22.685619200930418, 147.81840026822374, 49.57102042898191, 62.63211661470783 
-156.11886335903506, 2.596622332068536, 22.685664726702093, 147.11531239753108, 49.47634808083907, 62.63317530300934 
-157.02626301836563, 2.4087913588434637, 22.685705859999064, 146.41268295964804, 49.38448482967806, 62.6342031810459 
-157.93466458141535, 2.226413522321662, 22.68574285377148, 145.71049208268218, 49.29544253810948, 62.63520005172138 
-158.84405635513104, 2.0495405785862486, 22.685775957312206, 145.008720434677, 49.20923270203648, 62.63616572522649 
-159.75442477897934, 1.8782229783575841, 22.685805415858656, 144.30734920289015, 49.125866449674746, 62.63710001895621 
-160.66575445665262, 1.7125098325737007, 22.685831470202228, 143.60636007342666, 49.04535454055874, 62.63800275742791 
-161.57802819024397, 1.5524488781459687, 22.68585435630585, 142.9057352112087, 48.96770736453904, 62.63887377220015 
-162.49122701691212, 1.3980864439706786, 22.68587430493014, 142.2054572402633, 48.89293494077497, 62.63971290179267 
-163.40533024805083, 1.2494674172780666, 22.685891541268795, 141.50550922430992, 48.82104691672732, 62.64051999160756 
-164.32031551096827, 1.1066352104007828, 22.685906284593486, 140.80587464763167, 48.75205256715493, 62.641294893851864 
-165.23615879307448, 0.9696317280439597, 22.68591874790889, 140.10653739621355, 48.68596079311947, 62.64203746746159 
-166.15283448856675, 0.8384973351390689, 22.68592913761827, 139.40748173913258, 48.62278012100204, 62.642747578027716 
-167.07031544759408, 0.7132708253632366, 22.685937653199993, 138.708692310184, 48.56251870153544, 62.64342509772389 
-167.9885730278737, 0.593989390405397, 22.68594448689552, 138.0101540897303, 48.505184308855476, 62.64406990523645 
-168.9075771487229, 0.48068859005937026, 22.685949823409185, 137.31185238675823, 48.45078433957495, 62.64468188569637 
-169.8272963474618, 0.3734023232230128, 22.68595383962021, 136.61377282113148, 48.399325811883116, 62.64526093061387 
-170.74769783813338, 0.2721627998810369, 22.685956704307333, 135.91590130602526, 48.35081536467405, 62.64580693781533 
-171.66874757247788, 0.17700051414713736, 22.68595857788638, 135.21822403053127, 48.30525925670658, 62.64631981138308 
-172.590410303091, 0.08794421843917127, 22.685959612161227, 134.52072744242074, 48.2626633657986, 62.6467994615977 
-173.51264964868562, 0.005020898858528698, 22.685959950088314, 133.823398231054, 48.223033188058324, 62.64724580488355 
-174.43542816136934, -0.07174424815764666, 22.685959725555218, 133.1262233104259, 48.18637383715478, 62.64765876375702 
-175.3587073958417, -0.1423278378459807, 22.68595906317343, 132.42918980233597, 48.15269004363004, 62.648038266778194 
-176.2824479804066, -0.20670831772573714, 22.685958078085715, 131.73228501967301, 48.12198615425498, 62.64838424850557 
-177.20660968968886, -0.26486598674827067, 22.685956875788186, 131.03549644980393, 48.094266131430786, 62.648696649454195 
-178.13115151893587, -0.31678301293223193, 22.685955551967474, 130.33881173805736, 48.06953355263777, 62.648975416057276 
-179.05603175977927, -0.3624434494333901, 22.685954192353137, 129.6422186712918, 48.04779160993323, 62.64922050063113 
-179.9812080773248, -0.40183324900254175, 22.685952872585492, 128.94570516154, 48.029043109499774, 62.64943186134391 
179.09336241156686, -0.4349402767892415, 22.685951658099043, 128.24925922971894, 48.01329047124549, 62.649609462187954 
178.16772305895074, -0.4617543214538141, 22.685950604021762, 127.55286898939815, 48.00053572845692, 62.649753272955685 
177.2419176055666, -0.48226710455491106, 22.685949755090142, 126.85652263061617, 47.99078052750609, 62.64986326921942 
176.31599009985771, -0.49647228818494266, 22.685949145580416, 126.16020840373734, 47.98402612761222, 62.64993943231492 
175.38998481639294, -0.5043654808306814, 22.685948799255794, 125.46391460333999, 47.980273400658824, 62.64998174932883 
174.46394617384982, -0.5059442414417454, 22.685948729329922, 124.76762955212767, 47.97952283106685, 62.64999021308984 
173.53791865271697, -0.5012080816947497, 22.68594893844654, 124.07134158485492, 47.98177451572403, 62.649964822164044 
172.6119467128759, -0.49015846644651057, 22.685949418675435, 123.3750390322595, 47.98702816397071, 62.64990558085365 
171.68607471122326, -0.47279881237484733, 22.685950151524622, 122.67871020499231, 47.9952830976423, 62.64981249920008 
170.76034681949344, -0.44913448481107937, 22.685951107968794, 121.98234337753705, 48.00653825116805, 62.649685592990885 
169.8348069424416, -0.4191727927736464, 22.685952248493994, 121.28592677211088, 48.02079217172601, 62.64952488377014 
168.90949863654447, -0.3829229822175921, 22.685953523158364, 120.58944854253804, 48.038043019453646, 62.64933039885318 
167.98446502937523, -0.3403962275199089, 22.68595487166907, 119.89289675808757, 48.058288567713625, 62.64910217134491 
167.05974873980475, -0.2916056212259824, 22.685956223475134, 119.19625938726671, 48.081526203413894, 62.64884024016187 
166.13539179917822, -0.23656616208730732, 22.68595749787605, 118.49952428156121, 48.107752927381235, 62.64854465005805 
165.21143557361253, -0.17529474142571086, 22.68595860414624, 117.80267915911364, 48.13696535478721, 62.64821545165459 
164.28792068755354, -0.10781012786389348, 22.68595944167491, 117.10571158833085, 48.16915971562517, 62.64785270147277 
163.36488694872838, -0.03413295046683276, 22.685959900121333, 116.40860897141089, 48.20433185523719, 62.64745646197081 
162.44237327462113, 0.0457143196571885, 22.685959859585218, 115.71135852778062, 48.24247723488909, 62.64702680158397 
161.52041762059383, 0.13170738924283962, 22.685959190792026, 115.0139472774335, 48.283590932391995, 62.64656379476811 
160.59905690976825, 0.22382016418452727, 22.685957755292954, 114.31636202415851, 48.327667642768645, 62.64606752204664 
159.67832696477595, 0.32202477222302406, 22.685955405679277, 113.61858933864892, 48.37470167896231, 62.645538070060454 
158.75826244147723, 0.42629158693807434, 22.68595198581086, 112.92061554148138, 48.424686972586144, 62.644975531621085 
157.83889676474047, 0.5365892529798673, 22.685947331058436, 112.22242668595358, 48.47761707471077, 62.64438000576679 
156.92026206636663, 0.6528847124694125, 22.685941268559414, 111.5240085407697, 48.53348515668747, 62.64375159782159 
156.0023891252335, 0.7751432324954428, 22.6859336174868, 110.82534657256171, 48.59228401100437, 62.643090419456804 
155.0853073097272, 0.9033284336330217, 22.685924189330926, 110.12642592823457, 48.65400605217294, 62.64239658875546 
154.16904452251853, 1.0374023194072017, 22.68591278819358, 109.42723141712271, 48.71864331764162, 62.641670230278926 
153.2536271477339, 1.1773253066233713, 22.685899211094238, 108.7277474929447, 48.78618746873358, 62.640911475136 
152.33908000056087, 1.323056256484649, 22.6858832482878, 108.02795823554267, 48.85662979160544, 62.64012046105406 
151.42542627932016, 1.4745525064154614, 22.68586468359362, 107.32784733239231, 48.929961198223154, 62.63929733245215 
150.51268752002764, 1.6317699025098429, 22.685843294735243, 106.62739805986897, 49.006172227351904, 62.63844224051616 
149.60088355346008, 1.7946628325224543, 22.68581885369053, 105.92659326425424, 49.08525304555583, 62.63755534327543 
148.69003246473093, 1.9631842593200934, 22.68579112705152, 105.2254153424676, 49.167193448204, 62.63663680568079 
147.78015055537458, 2.1372857547115998, 22.685759876393792, 104.52384622250622, 49.251982860478165, 62.63568679968428 
146.8712523079285, 2.3169175335743937, 22.685724858654616, 103.82186734357575, 49.33961033837831, 62.63470550431949 
145.96335035299592, 2.502028488196482, 22.685685826519528, 103.11945963589434, 49.43006456972157, 62.63369310578327 
145.05645543876403, 2.6925662227535856, 22.685642528816796, 102.41660350015074, 49.523333875129616, 62.63264979751799 
144.15057640294597, 2.888477087842199, 22.685594710919215, 101.71327878659719, 49.61940620900001, 62.631575780294455 
143.24572014710765, 3.089706214990501, 22.68554211515271, 101.00946477375668, 49.71826916045645, 62.630471262294925 
142.34189161333526, 3.2961975510708577, 22.68548448121125, 100.30514014672309, 49.819909954272774, 62.629336459196736 
141.43909376319237, 3.5078938925388896, 22.68542154657751, 99.60028297503226, 49.92431545176537, 62.62817159425543 
140.53732755891104, 3.7247369194264044, 22.685353046948645, 98.89487069008044, 50.03147215164857, 62.62697689838797 
139.6365919467559, 3.9466672290170597, 22.68527871666676, 98.18888006206626, 50.14136619084709, 62.62575261025521 
138.73688384249598, 4.173624369136206, 22.685198289153394, 97.48228717643072, 50.25398334525993, 62.62449897634387 
137.83819811891456, 4.4055468709882835, 22.68511149734745, 96.77506740976881, 50.36930903046938, 62.623216251047715 
136.94052759528483, 4.642372281477649, 22.68501807414609, 96.0671954051855, 50.48732830238879, 62.62190469674725 
136.04386302873414, 4.884037194951438, 22.684917752847902, 95.3586450470668, 50.608025857842854, 62.62056458388862 
135.1481931074193, 5.1304772843051785, 22.68481026759784, 94.64938943523656, 50.7313860350732, 62.619196191060375 
134.253504445431, 5.381627331394915, 22.684695353833224, 93.93940085846707, 50.85739281416277, 62.61779980506915 
133.3597815793454, 5.637421256702043, 22.68457274873044, 93.22865076731124, 50.986029817371325, 62.616375721012766 
132.46700696633835, 5.897792148199988, 22.684442191651492, 92.51710974622183, 51.11728030937491, 62.61492424235145 
131.57516098377823, 6.162672289374296, 22.68430342458998, 91.80474748492254, 51.251127197401374, 62.61344568097683 
130.68422193021067, 6.431993186350903, 22.684156192615927, 91.09153274899327, 51.38755303125398, 62.61194035727771 
129.7941660276517, 6.7056855940896485, 22.684000244318707, 90.37743334963129, 51.52654000321481, 62.610408600203726 
128.90496742510294, 6.9836795416032995, 22.683835332247703, 89.66241611254746, 51.66806994781939, 62.60885074732535 
128.01659820320546, 7.265904356164705, 22.68366121334996, 88.94644684595532, 51.81212434149358, 62.60726714489109 
127.12902837994912, 7.55228868646764, 22.68347764940431, 88.2294903076094, 51.958684302043636, 62.60565814788089 
126.24222591735565, 7.842760524709605, 22.68328440745142, 87.51151017084588, 52.107730587989835, 62.60402412005588 
125.35615672905642, 8.13724722756718, 22.683081260219154, 86.79246898957874, 52.25924359773361, 62.60236543400459 
124.47078468868656, 8.435675536037504, 22.682867986542664, 86.07232816220048, 52.41320336854823, 62.60068247118449 
123.58607163902151, 8.737971594121614, 22.68264437177882, 85.3510478943359, 52.569589575382075, 62.59897562195976 
122.70197740178274, 9.04406096632811, 22.682410208214105, 84.62858716039405, 52.728381529463604, 62.59724528563411 
121.81845978804448, 9.353868653977718, 22.68216529546584, 83.90490366386213, 52.88955817669633, 62.59549187047943 
120.93547460917476, 9.667319110292025, 22.6819094408759, 83.17995379628177, 53.053098095832176, 62.59371579375905 
120.05297568824987, 9.984336254251385, 22.681642459896462, 82.45369259484676, 53.21897949641021, 62.591917481746144 
119.17091487188225, 10.304843483209718, 22.681364176467433, 81.72607369855719, 53.3871802164485, 62.59009736973705 
118.28924204240944, 10.628763684255613, 22.68107442338481, 80.99704930286408, 53.55767771987494, 62.58825590205889 
117.40790513039293, 10.95601924431127, 22.680773042659727, 80.26657011273434, 53.73044909368342, 62.586393532071725 
116.52685012738202, 11.286532058962948, 22.680459885867442, 79.53458529406367, 53.90547104480061, 62.58451072216485 
115.64602109890217, 11.62022354001815, 22.680134814486117, 78.80104242336222, 54.08271989664793, 62.58260794374745 
114.76536019763202, 11.957014621786804, 22.679797700224572, 78.0658874356342, 54.262171585382916, 62.58068567723266 
113.88480767673879, 12.296825766085318, 22.67944842533895, 77.32906457037036, 54.443801655803234, 62.578744412015844 
113.00430190334642, 12.639576965964174, 22.679086882937533, 76.59051631556768, 54.627585256896104, 62.57678464644637 
112.12377937211757, 12.985187748161081, 22.678712977273488, 75.85018334968919, 54.81349713701465, 62.574806887792626 
111.24317471893455, 13.333577174283628, 22.6783266240251, 75.10800448147113, 55.00151163866255, 62.57281165220075 
110.36242073467196, 13.68466384072652, 22.677927750563125, 74.36391658748349, 55.19160269286678, 62.5707994646463 
109.48144837905846, 14.03836587733011, 22.67751629620479, 73.61785454734465, 55.38374381311774, 62.56877085887917 
108.6001867946321, 14.394600944788486, 22.677092212454255, 72.86975117648791, 55.57790808885499, 62.56672637736137 
107.71856332079996, 14.753286230816322, 22.676655463229086, 72.1195371563744, 55.77406817847574, 62.56466657119802 
106.83650350801926, 15.114338445085746, 22.676206025072428, 71.36714096204213, 55.972196301842025, 62.562592000060526 
105.9539311321241, 15.477673812945003, 22.67574388735059, 70.61248878687829, 56.172264232261654, 62.56050323210308 
105.07076820882895, 15.84320806793289, 22.675269052435844, 69.85550446449714, 56.37424328791644, 62.558400843871446 
