# MEX_intpoint_lon [deg], MEX_intpoint_lat [deg], MEX_intpoint_angle [deg], TGO_intpoint_lon [deg], TGO_intpoint_lat [deg], TGO_intpoint_angle [deg] 
-104.17213133796378, 20.474740850193555, 22.436686192235864, -156.2729301152167, 59.14827004753003, 62.52846876993326 
-105.07706895175502, 20.101008685106674, 22.437285746468753, -157.07228192666608, 58.928076616626555, 62.53065469956267 
-105.98030800490014, 19.728308488025785, 22.437874588286604, -157.86806762083575, 58.70935853084383, 62.532835053256726 
-106.8819421173778, 19.356730503533825, 22.438452551133288, -158.66040069780186, 58.49215129639717, 62.53500917070475 
-107.78206352341626, 18.98636430827779, 22.43901948142182, -159.44939108686896, 58.27648978976816, 62.53717639799387 
-108.68076304478095, 18.617298828909863, 22.439575238553935, -160.23514526717915, 58.062408276079175, 62.53933608779338 
-109.57813006545486, 18.24962235925465, 22.440119694923947, -161.01776638406096, 57.84994042646818, 62.54148759953189 
-110.47425250757976, 17.883422576666167, 22.440652735907126, -161.7973543612405, 57.639119334510646, 62.543630299566665 
-111.36921680853771, 17.518786557539883, 22.441174259832376, -162.57400600904236, 57.42997753173278, 62.545763561345744 
-112.26310789905962, 17.15580079194816, 22.441684177939454, -163.34781512870572, 57.222547002258864, 62.54788676556229 
-113.15600918225688, 16.794551197368456, 22.4421824143209, -164.11887261294268, 57.016859196632716, 62.549999300301785 
-114.04800251348036, 16.435123131476576, 22.442668905848606, -164.8872665428642, 56.81294504485216, 62.552100561181554 
-114.93916818091867, 16.077601403978374, 22.443143602085286, -165.6530822813985, 56.610834968653194, 62.554189951482606 
-115.82958488685696, 15.722070287455418, 22.44360646518096, -166.4164025633248, 56.41055889307885, 62.55626688227445 
-116.71932972952294, 15.36861352720182, 22.444057469754632, -167.17730758204337, 56.21214625736622, 62.55833077253226 
-117.60847818545749, 15.017314350030825, 22.444496602761376, -167.93587507320095, 56.01562602518355, 62.560381049246594 
-118.49710409235102, 14.668255472031714, 22.44492386334493, -168.69218039528786, 55.82102669424779, 62.562417147526 
-119.38527963229744, 14.321519105258544, 22.445339262676185, -169.44629660732036, 55.62837630535156, 62.56443851069227 
-120.27307531542132, 13.97718696333449, 22.445742823777692, -170.19829454371933, 55.437702450827224, 62.56644459036839 
-121.16055996384348, 13.635340265956172, 22.446134581334405, -170.9482428864938, 55.24903228247445, 62.56843484655958 
-122.04780069595452, 13.296059742284678, 22.446514581491154, -171.69620823483316, 55.06239251897654, 62.57040874772716 
-122.93486291097386, 12.959425633210628, 22.446882881636785, -172.44225517221187, 54.87780945282934, 62.572365770855505 
-123.82181027377689, 12.625517692482862, 22.447239550175667, -173.18644633110375, 54.69530895680601, 62.57430540151209 
-124.70870469998026, 12.294415186691094, 22.44758466628656, -173.92884245540336, 54.51491648997933, 62.576227133900915 
-125.59560634127955, 11.966196894094915, 22.447918319669352, -174.66950246064624, 54.336657103322636, 62.57813047090913 
-126.4825735710408, 11.640941102292729, 22.448240610279974, -175.40848349211817, 54.16055544490953, 62.580014924147314 
-127.36966297015226, 11.318725604725756, 22.448551648053865, -176.14584098094053, 53.98663576473118, 62.58188001398321 
-128.25692931314774, 10.999627696014088, 22.44885155261833, -176.88162869821463, 53.81492191915001, 62.58372526956926 
-129.14442555461906, 10.683724166122905, 22.449140452994254, -177.61589880730682, 53.64543737500698, 62.58555022886395 
-130.03220281593954, 10.371091293359239, 22.44941848728743, -178.34870191435184, 53.478205213399484, 62.58735443864734 
-130.92031037232468, 10.061804836200709, 22.44968580237022, -179.08008711704952, 53.31324813314582, 62.58913745453049 
-131.80879564026299, 9.755940023960079, 22.4499425535535, -179.8101020518274, 53.15058845395188, 62.59089884095941 
-132.69770416535135, 9.453571546290716, 22.45018890424988, 179.46120706056098, 52.99024811929454, 62.59263817121334 
-133.58707961057644, 9.154773541540322, 22.450425025628196, 178.73379537093527, 52.8322486990364, 62.5943550273979 
-134.47696374508564, 8.859619583962067, 22.450651096259968, 178.00761935902005, 52.67661139178505, 62.59604900043263 
-135.3673964334962, 8.568182669794203, 22.450867301758297, 177.28263679214737, 52.52335702701046, 62.597719690033905 
-136.2584156257944, 8.280535202221342, 22.451073834409577, 176.55880668527018, 52.37250606693251, 62.59936670469292 
-137.1500573478792, 7.996748975232824, 22.451270892798547, 175.8360892622289, 52.224078608191334, 62.60098966164867 
-138.0423556928095, 7.716895156395499, 22.451458681427248, 175.1144459182171, 52.07809438331179, 62.60258818685707 
-138.93534281281634, 7.4410442685606, 22.451637410328345, 174.3938391833915, 51.93457276197329, 62.60416191495519 
-139.82904891214284, 7.169266170526809, 22.451807294673284, 173.67423268757716, 51.7935327520959, 62.60571048922174 
-140.72350224077934, 6.901630036683634, 22.451968554375846, 172.95559112601774, 51.65499300075303, 62.60723356153357 
-141.61872908916126, 6.638204335661795, 22.452121413691675, 172.23788022612413, 51.51897179492075, 62.60873079231828 
-142.51475378389978, 6.379056808019756, 22.452266100814185, 171.5210667151772, 51.385487062073395, 62.61020185050383 
-143.41159868461733, 6.12425444299775, 22.45240284746749, 170.8051182889397, 51.25455637063479, 62.61164641346424 
-144.30928418196, 5.873863454373343, 22.452531888496832, 170.09000358113755, 51.126196930294014, 62.613064166962495 
-145.2078286968604, 5.627949255454975, 22.45265346145708, 169.3756921337696, 51.00042559219451, 62.61445480509065 
-146.10724868112453, 5.386576433252442, 22.452767806199883, 168.66215436820787, 50.8772588490049, 62.61581803020713 
-147.00755861941786, 5.149808721865689, 22.452875164459822, 167.94936155705142, 50.756712834879416, 62.61715355287133 
-147.90877103272177, 4.917708975135973, 22.45297577944044, 167.23728579669933, 50.63880332531602, 62.61846109177653 
-148.8108964833362, 4.6903391386057, 22.453069895400397, 166.52589998060796, 50.52354573691967, 62.61974037368012 
-149.71394358149763, 4.467760220835963, 22.453157757240444, 165.81517777320096, 50.41095512707799, 62.620991133332375 
-150.6179189936851, 4.250032264132907, 22.453239610091725, 165.10509358440063, 50.301046193556466, 62.6222131134035 
-151.52282745268099, 4.037214314736734, 22.453315698905975, 164.39562254475078, 50.193833274019966, 62.623406064409174 
-152.4286717694541, 3.829364392529225, 22.453386268048092, 163.68674048110256, 50.08933034548726, 62.62456974463495 
-153.33545284692764, 3.6265394603179972, 22.45345156089169, 162.97842389283622, 49.98755102372477, 62.62570392005955 
-154.24316969569338, 3.4287953927578787, 22.45351181941816, 162.27064992859187, 49.888508562585905, 62.626808364277665 
-155.1518194517285, 3.2361869449716725, 22.453567283819677, 161.5633963634846, 49.79221585330175, 62.627882858421515 
-156.06139739616847, 3.048767720934749, 22.453618192106827, 160.8566415767794, 49.69868542372907, 62.62892719108275 
-156.97189697718457, 2.866590141689495, 22.453664779721258, 160.15036453000315, 49.60792943756098, 62.629941158233734 
-157.88330983401025, 2.6897054134574208, 22.45370727915387, 159.4445447454711, 49.519959693505896, 62.630924563148746 
-158.79562582315555, 2.518163495718199, 22.453745919569144, 158.7391622852065, 49.434787624439736, 62.63187721632577 
-159.70883304684304, 2.352013069326287, 22.453780926435993, 158.03419773023333, 49.35242429653648, 62.63279893540834 
-160.62291788369348, 2.1913015047368187, 22.45381252116569, 157.32963216022205, 49.27288040838199, 62.63368954510799 
-161.53786502168236, 2.036074830413721, 22.453840920757326, 156.62544713346972, 49.196166290075475, 62.63454887712771 
-162.45365749338356, 1.886377701493389, 22.453866337451316, 155.92162466719682, 49.12229190232349, 62.63537677008601 
-163.3702767135083, 1.7422533687781239, 22.453888978391273, 155.21814721814252, 49.05126683553037, 62.636173069442506 
-164.2877025187415, 1.6037436481336562, 22.453909045294928, 154.51499766344287, 48.98310030888953, 62.63693762742435 
-165.20591320986986, 1.4708888903654407, 22.453926734134278, 153.81215928177488, 48.91780116947937, 62.63767030295452 
-166.12488559618964, 1.3437279516479403, 22.45394223482558, 153.10961573475188, 48.855377891367816, 62.638370961581536 
-167.04459504217306, 1.2222981645809665, 22.453955730929536, 152.40735104855509, 48.79583857472906, 62.63903947541103 
-167.9650155163665, 1.1066353099464397, 22.45396739936197, 151.70534959578688, 48.73919094497579, 62.63967572303922 
-168.88611964248432, 0.9967735892380061, 22.45397741011557, 151.0035960775329, 48.685442351910645, 62.64027958948859 
-169.8078787526553, 0.8927455980347788, 22.45398592599295, 150.30207550561897, 48.634599768899605, 62.640850966145635 
-170.73026294277093, 0.7945823002891425, 22.453993102351294, 149.60077318505046, 48.586669792070694, 62.6413897507012 
-171.6532411298764, 0.7023130035966888, 22.453999086859213, 148.89967469662201, 48.54165863954061, 62.64189584709314 
-172.5767811115384, 0.6159653355145904, 22.45400401926574, 148.1987658796858, 48.49957215067203, 62.64236916545172 
-173.50084962711588, 0.535565220992397, 22.45400803118219, 147.49803281506632, 48.46041578536425, 62.64280962204773 
-174.42541242085252, 0.461136860976736, 22.45401124587678, 146.7974618081117, 48.424194623379265, 62.64321713924351 
-175.35043430670243, 0.3927027122488502, 22.454013778082626, 146.09703937186953, 48.390913363705835, 62.64359164544693 
-176.27587923479476, 0.3302834685506378, 22.454015733819073, 145.3967522103782, 48.3605763239633, 62.6439330750684 
-177.20171035943468, 0.27389804305204885, 22.454017210226862, 144.69658720206232, 48.33318743984733, 62.64424136848114 
-178.12789010853348, 0.22356355220891033, 22.454018295417143, 143.99653138322367, 48.30875026461913, 62.64451647198461 
-179.05438025435373, 0.1792953010568214, 22.45401906833467, 143.29657193161674, 48.28726796863974, 62.644758337771336 
-179.98114198545088, 0.14110676998294636, 22.45401959863526, 142.596696150101, 48.268743338951126, 62.64496692389711 
179.09186402031372, 0.10900960301331418, 22.454019946577777, 141.89689145035905, 48.25317877890492, 62.64514219425469 
178.16467752181566, 0.08301359764932242, 22.454020162930746, 141.19714533667354, 48.24057630784028, 62.64528411855091 
177.2373386398999, 0.06312669628262936, 22.454020288893606, 140.49744538975233, 48.230937560811746, 62.645392672287606 
176.30988778193822, 0.04935497921314529, 22.45402035603301, 139.79777925059417, 48.224263788367814, 62.64546783674576 
175.38236556585025, 0.041702659290465745, 22.4540203862338, 139.09813460438616, 48.22055585638097, 62.64550959897376 
174.45481274372986, 0.040172078194140176, 22.454020391665253, 138.39849916442412, 48.21981424592982, 62.645517951778935 
173.52727012521925, 0.04476370436365312, 22.45402037476215, 137.69886065604797, 48.22203905323336, 62.645492893722945 
172.59977850077487, 0.05547613258414396, 22.454020328221056, 136.99920680058304, 48.22722998963787, 62.64543442912098 
171.67237856496936, 0.07230608522897261, 22.454020235011612, 136.2995252992796, 48.23538638165632, 62.64534256804434 
170.74511083997373, 0.09524841515568461, 22.454020068402897, 135.5998038172418, 48.2465071710602, 62.64521732632711 
169.81801559936343, 0.12429611024679516, 22.454019792004818, 134.90002996733756, 48.260590915023535, 62.64505872557612 
168.89113279239018, 0.15944029958230854, 22.454019359824493, 134.20019129408118, 48.27763578631861, 62.644866793184896 
167.9645019688595, 0.20067026122608675, 22.45401871633747, 133.50027525748, 48.29763957356285, 62.64464156235095 
167.03816220475173, 0.24797343160353233, 22.4540177965738, 132.80026921683645, 48.320599681516114, 62.644383072097014 
166.11215202872043, 0.3013354164436239, 22.454016526218798, 132.10016041449657, 48.346513131427486, 62.64409136729537 
165.18650934959948, 0.36074000325381433, 22.454014821728297, 131.39993595953658, 48.375376561430485, 62.6437664986961 
164.26127138504432, 0.426169175292185, 22.45401259045836, 130.69958281137772, 48.40718622698566, 62.6434085229585 
163.3364745914299, 0.49760312699701464, 22.454009730809204, 129.999087763321, 48.44193800136886, 62.643017502685986 
162.41215459512102, 0.5750202808301426, 22.454006132383107, 129.29843742599118, 48.479627376204114, 62.64259350646422 
161.48834612522683, 0.6583973054865759, 22.454001676156246, 128.59761821068167, 48.52024946203897, 62.64213660890261 
160.56508294794304, 0.7477091354195152, 22.453996234664004, 127.89661631258936, 48.56379898896088, 62.64164689067858 
159.64239780258148, 0.8429289916264199, 22.453989672199747, 127.19541769392944, 48.61027030725236, 62.6411244385853 
158.72032233937793, 0.9440284036387482, 22.453981845026558, 126.49400806691985, 48.65965738808288, 62.64056934558206 
157.79888705916312, 1.0509772326552618, 22.453972601601894, 125.79237287662423, 48.711953824235295, 62.63998171084753 
156.87812125497467, 1.1637436957559972, 22.4539617828147, 125.09049728364234, 48.7671528308641, 62.63936163983571 
155.9580529556794, 1.2822943911317952, 22.453949222234684, 124.38836614663602, 48.82524724628317, 62.63870924433451 
155.0387088716693, 1.4065943242621777, 22.45393474637349, 123.6859640046791, 48.88622953278009, 62.638024642526645 
154.1201143426855, 1.5366069349724956, 22.453918174957376, 122.98327505941835, 48.95009177745405, 62.63730795905294 
153.20229328781733, 1.6722941252997192, 22.453899321211043, 122.2802831570329, 49.0168256930745, 62.63655932507801 
152.28526815771596, 1.813616288095015, 22.453877992152222, 121.57697176997843, 49.086422618957016, 62.635778878357385 
151.36905988905445, 1.9605323362901472, 22.453853988896704, 120.87332397850236, 49.15887352185311, 62.634966763307084 
150.45368786125778, 2.1129997327539627, 22.453827106973215, 120.16932245191555, 49.23416899685053, 62.634123131074666 
149.53916985551933, 2.270974520664811, 22.453797136648035, 119.46494942960535, 49.31229926828011, 62.6332481396118 
148.62552201611325, 2.434411354324368, 22.453763863258633, 118.76018670177439, 49.39325419062536, 62.63234195374837 
147.7127588140036, 2.603263530338348, 22.453727067555988, 118.05501558988871, 49.477023249430886, 62.63140474526755 
146.800893012746, 2.7774830190898503, 22.4536865260552, 117.3494169268185, 49.5635955622051, 62.630436692982144 
145.88993563666855, 2.9570204964315496, 22.453642011393875, 116.64337103665319, 49.65295987931322, 62.62943798281174 
144.9798959413145, 3.1418253755233967, 22.453593292697747, 115.93685771417336, 49.745104584855646, 62.62840880786037 
144.07078138612064, 3.331845838743767, 22.45354013595319, 115.22985620395914, 49.84001769752718, 62.62734936849486 
143.16259760930166, 3.527028869602565, 22.453482304386014, 114.52234517911613, 49.93768687145211, 62.62625987242347 
142.25534840490323, 3.727320284586588, 22.453419558846086, 113.81430271959711, 50.03809939699004, 62.625140534774346 
141.3490357019829, 3.9326647648683113, 22.453351658197267, 113.10570629009852, 50.14124220150728, 62.62399157817431 
140.44365954587118, 4.143005887811437, 22.453278359712183, 112.39653271750828, 50.24710185010814, 62.62281323282687 
139.53921808146342, 4.358286158207656, 22.453199419471222, 111.68675816788202, 50.3556645463207, 62.621605736590325 
138.63570753848572, 4.57844703918158, 22.453114592765324, 110.97635812292239, 50.46691613273101, 62.620369335054455 
137.7331222186774, 4.8034289827022345, 22.45302363450194, 110.26530735593617, 50.58084209155975, 62.61910428161703 
136.83145448482696, 5.033171459641923, 22.45292629961379, 109.55357990724231, 50.69742754517499, 62.61781083755853 
135.93069475159737, 5.267612989325415, 22.452822343469595, 108.84114905900248, 50.81665725653472, 62.61648927211613 
135.03083147807257, 5.506691168514529, 22.452711522286574, 108.12798730944571, 50.938515629552235, 62.61513986255568 
134.1318511619561, 5.750342699775753, 22.452593593543888, 107.41406634645593, 51.0629867093776, 62.613762894242264 
133.23373833535078, 5.998503419180636, 22.452468316396686, 106.6993570204912, 51.19005418258785, 62.612358660708665 
132.3364755620462, 6.251108323291536, 22.452335452090036, 105.98382931680145, 51.319701377278776, 62.610927463721694 
131.440043436242, 6.508091595387232, 22.45219476437234, 105.26745232691006, 51.45191126305009, 62.60946961334614 
130.54442058263194, 6.7693866308860295, 22.452046019907588, 104.55019421932353, 51.58666645087677, 62.60798542800616 
129.64958365777542, 7.0349260619258445, 22.45188898868597, 103.8320222094319, 51.723949192857404, 62.6064752345438 
128.75550735268283, 7.304641781063868, 22.45172344443224, 103.11290252856034, 51.86374138183204, 62.604939368274785 
127.86216439654144, 7.578464964060321, 22.451549165011397, 102.39280039213193, 52.00602455085977, 62.603378173040745 
126.96952556151, 7.856326091713813, 22.451365932830992, 101.67167996689875, 52.15077987254748, 62.60179200125815 
126.07755966851074, 8.138154970717958, 22.451173535239704, 100.9495043371971, 52.29798815822012, 62.60018121396396 
125.18623359395049, 8.423880753511277, 22.450971764921515, 100.22623547018124, 52.44762985692256, 62.59854618085704 
124.29551227730241, 8.713431957095194, 22.450760420285015, 99.50183417998721, 52.59968505424297, 62.59688728033571 
123.40535872948456, 9.00673648079671, 22.450539305847393, 98.77626009077724, 52.754133470946925, 62.59520489953121 
122.5157340419715, 9.303721622955251, 22.45030823261244, 98.04947159861241, 52.91095446141166, 62.59349943433679 
121.62659739658018, 9.604314096514829, 22.450067018442255, 97.32142583209998, 53.07012701184838, 62.59177128943193 
120.73790607587232, 9.908440043505415, 22.44981548842195, 96.59207861175844, 53.23162973830149, 62.59002087830224 
119.84961547412094, 10.216025048399002, 22.449553475217147, 95.86138440804247, 53.395440884411805, 62.58824862325414 
118.9616791087896, 10.526994150328557, 22.449280819423404, 95.12929629796618, 53.56153831893124, 62.58645495542439 
118.07404863247949, 10.841271854159373, 22.448997369907573, 94.3957659202618, 53.72989953297552, 62.584640314784615 
117.18667384530121, 11.158782140404838, 22.448702984140148, 93.66074342900787, 53.90050163700087, 62.58280515014009 
116.299502707633, 11.479448473980385, 22.448397528518598, 92.92417744565837, 54.0733213574904, 62.58094991912311 
115.41248135323241, 11.803193811791036, 22.44808087868088, 92.18601500940191, 54.24833503333485, 62.57907508818049 
114.52555410267152, 12.129940609150067, 22.447752919809, 91.44620152577717, 54.425518611892066, 62.57718113255521 
113.63866347707125, 12.459610825027688, 22.447413546922, 90.70468071346801, 54.6048476447087, 62.575268536261916 
112.75175021211574, 12.792125926130842, 22.447062665158104, 89.96139454919884, 54.78629728288692, 62.57333779205637 
111.86475327233195, 13.127406889816104, 22.44670019004559, 89.21628321064824, 54.96984227207822, 62.57138940139844 
110.97760986562531, 13.465374205840101, 22.446326047761985, 88.46928501729494, 55.1554569470856, 62.569423874408635 
110.09025545806806, 13.805947876952764, 22.44594017538133, 87.72033636910854, 55.34311522605452, 62.567441729818086 
109.20262378894223, 14.149047418340583, 22.445542521108983, 86.96937168299357, 55.532790604231955, 62.56544349491191 
108.31464688604459, 14.49459185592849, 22.445133044503915, 86.21632332689195, 55.7244561472725, 62.56342970546568 
107.42625508126801, 14.842499723550336, 22.444711716687877, 85.46112155144738, 55.918084484068494, 62.561400905674894 
106.53737702647852, 15.192689058999646, 22.44427852054135, 84.70369441913004, 56.11364779908134, 62.55935764807775 
105.64793970971503, 15.545077398973426, 22.443833450885947, 83.94396773071927, 56.31111782414882, 62.55730049347054 
104.75786847174356, 15.899581772923696, 22.44337651465294, 83.1818649490363, 56.51046582974296, 62.55523001081608 
