# MEX_intpoint_lon [deg], MEX_intpoint_lat [deg], MEX_intpoint_angle [deg], TGO_intpoint_lon [deg], TGO_intpoint_lat [deg], TGO_intpoint_angle [deg] 
-104.5729585578452, 20.56653861624753, 22.678668829934786, -170.90628794033879, 59.035661438826736, 62.53147002904404 
-105.47045310340901, 20.180316307651353, 22.67929793815959, -171.69927757556508, 58.81205528561482, 62.533694908942394 
-106.3662400091728, 19.795196226610614, 22.679915489306335, -172.48875239562727, 58.589962864864965, 62.53591401289015 
-107.26041809648271, 19.411269933734765, 22.680521309095454, -173.27482604773655, 58.36941952829293, 62.5381266690111 
-108.15308464081198, 19.028628309995966, 22.681115237240796, -174.05760853812248, 58.150460006606565, 62.54033221206322 
-109.04433534939757, 18.647361577661066, 22.68169712746918, -174.83720635819677, 57.93311842782109, 62.54252998362605 
-109.93426434012257, 18.26755932031022, 22.68226684752306, -175.61372260604176, 57.71742833455477, 62.54471933228014 
-110.82296412150475, 17.88931050190808, 22.68282427914624, -176.38725710337752, 57.50342270035399, 62.54689961377888 
-111.71052557366251, 17.51270348489555, 22.683369318052954, -177.15790650816166, 57.29113394509385, 62.549070191212465 
-112.59703793013837, 17.137826047272277, 22.68390187388015, -177.9257644229731, 57.08059394949908, 62.55123043516403 
-113.48258876047105, 16.764765398641867, 22.6844218701232, -178.69092149933113, 56.87183406882671, 62.55337972385835 
-114.36726395341567, 16.393608195193906, 22.68492924405514, -179.45346553809694, 56.664885145751164, 62.55551744330221 
-115.25114770072067, 16.024440553598108, 22.685423946629612, 179.7865184138971, 56.45977752248942, 62.557642987417594 
-116.13432248137993, 15.657348063788044, 22.68590594236766, 179.02894797084736, 56.25654105220282, 62.55975575816673 
-117.01686904628538, 15.292415800613195, 22.686375209228483, 178.2737433184707, 56.05520510970985, 62.56185516566983 
-117.89886640321558, 14.929728334339433, 22.686831738464473, 177.52082712785125, 55.85579860154291, 62.56394062831483 
-118.7803918021019, 14.569369739979903, 22.687275534460735, 176.77012447251118, 55.65834997538017, 62.566011572859786 
-119.66152072052367, 14.211423605439148, 22.68770661455921, 176.02156274857757, 55.462887228882515, 62.56806743452773 
-120.54232684938947, 13.85597303845513, 22.688125008867818, 175.2750715979205, 55.269437917963785, 62.57010765709395 
-121.42288207877053, 13.503100672324807, 22.6885307600548, 174.5305828341426, 55.07802916452152, 62.5721316929661 
-122.30325648385819, 13.152888670400595, 22.68892392312863, 173.78803037130365, 54.88868766365369, 62.57413900325682 
-123.18351831102541, 12.805418729345968, 22.689304565203635, 173.04735015526674, 54.70143969038644, 62.57612905784934 
-124.0637339639779, 12.46077208114036, 22.68967276525193, 172.30848009755817, 54.516311105935735, 62.578101335455784 
-124.94396798998847, 12.119029493824195, 22.690028613841775, 171.57136001163533, 54.33332736352576, 62.58005532366883 
-125.82428306621259, 11.780271270977034, 22.6903722128628, 170.8359315514617, 54.15251351378514, 62.581990519006126 
-126.70473998609143, 11.444577249922663, 22.69070367523851, 170.10213815229096, 53.97389420974143, 62.58390642694822 
-127.5853976458533, 11.112026798656645, 22.691023124626405, 169.36992497356636, 53.79749371143332, 62.58580256196979 
-128.46631303113023, 10.782698811493518, 22.691330695106146, 168.63923884384474, 53.62333589015932, 62.587678447564464 
-129.34754120371292, 10.456671703432056, 22.69162653085622, 167.9100282076578, 53.45144423238051, 62.589533616263054 
-130.22913528847195, 10.134023403239079, 22.691910785819466, 167.18224307422753, 53.28184184329461, 62.591367609646085 
-131.11114646047878, 9.814831345253475, 22.69218362335799, 166.455834967954, 53.114551450097444, 62.593179978349866 
-131.99362393236467, 9.499172459914503, 22.69244521589789, 165.73075688059936, 52.94959540494772, 62.594970282066726 
-132.8766149419613, 9.187123163019491, 22.69269574456428, 165.00696322509262, 52.786995687649835, 62.59673808953995 
-133.76016474027074, 8.878759343718805, 22.69293539880705, 164.28440979088444, 52.62677390806911, 62.59848297855256 
-134.6443165798172, 8.574156351257287, 22.693164376017997, 163.5630537007827, 52.4689513082935, 62.60020453591132 
-135.52911170343748, 8.273388980473673, 22.69338288113964, 162.8428533692037, 52.313548764554625, 62.60190235742527 
-136.41458933357052, 7.976531456071685, 22.69359112626643, 162.12376846177506, 52.160586788920995, 62.60357604787919 
-137.30078666211034, 7.683657415678639, 22.693789330238744, 161.40575985622993, 52.010085530775754, 62.60522522100252 
-138.18773884089055, 7.394839891709724, 22.693977718230236, 160.68878960453475, 51.86206477809061, 62.60684949943354 
-139.0754789728713, 7.11015129205824, 22.694156521329194, 159.97282089619392, 51.716543958506975, 62.60844851467902 
-139.96403810410305, 6.8296633796350585, 22.69432597611428, 159.25781802267863, 51.57354214023576, 62.61002190707001 
-140.85344521654332, 6.553447250782383, 22.694486324225327, 158.5437463429279, 51.43307803278574, 62.611569325713106 
-141.74372722180624, 6.281573312589948, 22.69463781192978, 157.83057224987326, 51.29516998753094, 62.613090428438475 
-142.6349089559253, 6.014111259144218, 22.69478068968525, 157.11826313793932, 51.15983599812659, 62.614584881743845 
-143.52701317521277, 5.751130046743745, 22.694915211698806, 156.40678737147547, 51.02709370078318, 62.61605236073542 
-144.42006055329904, 5.492697868116652, 22.695041635483708, 155.6961142540748, 50.896960374407506, 62.61749254906537 
-145.31406967943815, 5.238882125678945, 22.695160221413918, 154.98621399873977, 50.76945294061954, 62.61890513886665 
-146.20905705816384, 4.989749403875056, 22.695271232277133, 154.2770576988537, 50.6445879636537, 62.620289830684776 
-147.1050371103832, 4.745365440644745, 22.695374932827033, 153.56861729992025, 50.52238165015234, 62.62164633340741 
-148.00202217599266, 4.505795098063516, 22.69547158933501, 152.86086557203538, 50.402849848859695, 62.622974364191286 
-148.90002251810208, 4.271102332206045, 22.695561469142344, 152.15377608305496, 50.28600805022365, 62.624273648387444 
-149.79904632894988, 4.041350162285459, 22.695644840213117, 151.44732317242645, 50.171871385912816, 62.62554391946427 
-150.6990997375928, 3.81660063912332, 22.695721970688616, 150.7414819256509, 50.06045462825603, 62.62678491892904 
-151.6001868194496, 3.596914813008576, 22.69579312844379, 150.03622814934567, 49.95177218961113, 62.62799639624809 
-152.50230960777748, 3.382352701005726, 22.695858580646295, 149.33153834687775, 49.845838121669566, 62.62917810876565 
-153.4054681071559, 3.1729732537754467, 22.69591859331876, 148.62738969453974, 49.74266611470353, 62.630329821621665 
-154.30966030904955, 2.9688343219731266, 22.695973430904786, 147.92376001824144, 49.642269496761614, 62.63145130766911 
-155.21488220951875, 2.769992622293163, 22.69602335583935, 147.220627770691, 49.54466123281902, 62.632542347390405 
-156.1211278291405, 2.5765037032292066, 22.696068628124127, 146.51797200904093, 49.44985392388828, 62.633602728813635 
-157.02838923519943, 2.388421910622518, 22.696109504908197, 145.81577237297532, 49.35785980609604, 62.63463224742857 
-157.93665656620183, 2.205800353072555, 22.696146240074917, 145.11400906321524, 49.268690749731185, 62.635630706102916 
-158.8459180587618, 2.028690867285829, 22.696179083835222, 144.41266282042076, 49.18235825826987, 62.63659791499859 
-159.75616007690041, 1.857143983440441, 22.69620828232819, 143.71171490446866, 49.09887346738214, 62.63753369148856 
-160.66736714379473, 1.6912088906453238, 22.69623407722911, 143.01114707408541, 49.01824714392534, 62.63843786007444 
-161.57952197600434, 1.5309334025743198, 22.696256705365812, 142.310941566817, 48.940489684928835, 62.63931025230478 
-162.49260552019783, 1.3763639233561862, 22.696276398343574, 141.61108107931648, 48.865611116574634, 62.640150706694534 
-163.4065969923928, 1.2275454138023572, 22.696293382179284, 140.91154874793193, 48.79362109317823, 62.64095906864574 
-164.32147391971603, 1.0845213580547444, 22.696307876945152, 140.2123281295778, 48.72452889617395, 62.641735190369516 
-165.23721218468177, 0.9473337307362738, 22.696320096422614, 139.51340318287365, 48.65834343310867, 62.64247893080973 
-166.15378607197778, 0.816022964686434, 22.696330247766795, 138.81475824953415, 48.59507323664797, 62.643190155568476 
-167.0711683177411, 0.6906279193641527, 22.696338531181965, 138.1163780359962, 48.534726463598204, 62.64386873683336 
-167.98933016129556, 0.5711858499995036, 22.696345139608443, 137.41824759526776, 48.47731089394819, 62.644514553307026 
-168.90824139931513, 0.45773237757484825, 22.69635025842145, 136.72035230898555, 48.422833929933766, 62.645127490138705 
-169.82787044236852, 0.3503014597148521, 22.696354065142117, 136.02267786966772, 48.37130259512848, 62.64570743885844 
-170.74818437379048, 0.24892536256333814, 22.69635672916117, 135.32521026314888, 48.32272353356352, 62.646254297313625 
-171.66914901081785, 0.1536346337229629, 22.696358411475757, 134.62793575118516, 48.277103008879614, 62.64676796960831 
-172.5907289679188, 0.06445807633181233, 22.69635926443938, 133.93084085421728, 48.2344469035138, 62.64724836604534 
-173.51288772223475, -0.018577275651573723, 22.69635943152586, 133.23391233428038, 48.19476071792354, 62.64769540307135 
-174.43558768104765, -0.0954461808858482, 22.69635904710697, 132.53713717804942, 48.15804956985061, 62.6481090032249 
-175.35879025117498, -0.16612521274139053, 22.696358236244635, 131.8405025800091, 48.12431819362702, 62.64848909508768 
-176.28245591018873, -0.23059277998901248, 22.696357114497626, 131.14399592573852, 48.0935709395251, 62.64883561323908 
-177.206544279346, -0.28882914602389, 22.696355787743034, 130.44760477529988, 48.065811773153676, 62.64914849821398 
-178.13101419811198, -0.34081644656948057, 22.696354352012918, 129.7513168467215, 48.041044274901985, 62.64942769646413 
-179.05582380014985, -0.3865387058101903, 22.69635289334621, 129.0551199995663, 48.01927163943322, 62.64967316032303 
-179.98093059064496, -0.4259818509058837, 22.69635148765608, 128.35900221857509, 48.00049667522896, 62.64988484797432 
179.0937084751746, -0.45913372484590703, 22.696350200613043, 127.66295159737665, 47.98472180418582, 62.65006272342399 
178.16813691246367, -0.48598409760477307, 22.69634908754381, 126.9669563222555, 47.97194906126552, 62.6502067564762 
177.2423986262804, -0.5065246755667142, 22.69634819334617, 126.27100465596779, 47.9621800941994, 62.650316922712854 
176.31653783035208, -0.5207491091912039, 22.69634755241992, 125.57508492159755, 47.95541616324806, 62.65039320347721 
175.39059896524233, -0.5286529988967118, 22.69634718861389, 124.8791854864445, 47.95165814101701, 62.650435585861146 
174.4646266160766, -0.5302338991452344, 22.696347115189347, 124.18329474593446, 47.95090651232861, 62.65044406269629 
173.53866542998574, -0.5254913207154208, 22.69634733479958, 123.48740110754481, 47.95316137415091, 62.65041863254922 
172.61276003342874, -0.5144267311575563, 22.69634783948577, 122.79149297473596, 47.95842243558335, 62.65035929972045 
171.68695494955583, -0.4970435534289751, 22.69634861068931, 122.09555873088068, 47.96668901789953, 62.650266074247384 
170.76129451577287, -0.47334716271407373, 22.696349619280276, 121.39958672318328, 47.97796005464689, 62.65013897191113 
169.83582280166797, -0.4433448814382984, 22.69635082560225, 120.70356524657967, 47.99223409180287, 62.64997801424727 
168.91058352745836, -0.40704597249100477, 22.69635217953334, 120.00748252761042, 48.009509287987456, 62.64978322856044 
167.98561998311422, -0.3644616306772341, 22.696353620563293, 119.31132670825804, 48.0297834147311, 62.649554647942814 
167.06097494831323, -0.3156049724238163, 22.69635507788664, 118.61508582973975, 48.05305385679761, 62.6492923112963 
166.13669061337475, -0.2604910237700865, 22.696356470511716, 117.9187478162476, 48.07931761256091, 62.648996263358626 
165.21280850131984, -0.19913670667861735, 22.696357707385495, 117.22230045862626, 48.10857129443458, 62.64866655473303 
164.2893693911974, -0.13156082370602845, 22.696358687533905, 116.52573139798011, 48.140811129353175, 62.64830324192154 
163.36641324281166, -0.0577840410785592, 22.696359300217665, 115.8290281092, 48.176032959303576, 62.64790638736196 
162.44397912297998, 0.022171129778509335, 22.6963594251032, 115.13217788440053, 48.21423224190521, 62.647476059468296 
161.52210513344352, 0.10828035220430979, 22.696358932448536, 114.43516781625792, 48.25540405103713, 62.647012332674535 
160.6008283405468, 0.20051748570163028, 22.696357683304008, 113.73798478123845, 48.2995430775103, 62.64651528748177 
159.68018470679405, 0.2988546087110445, 22.6963555297273, 113.04061542270769, 48.34664362978292, 62.64598501050859 
158.76020902438302, 0.4032620426956276, 22.696352315012703, 112.34304613390918, 48.39669963471669, 62.645421594544516 
157.84093485080865, 0.513708377468958, 22.696347873934187, 111.64526304080252, 48.44970463837177, 62.64482513860635 
156.9223944466213, 0.6301604976960635, 22.696342033002082, 110.94725198474877, 48.50565180683774, 62.644195747997664 
156.00461871541447, 0.7525836104945481, 22.696334610732904, 110.24899850503213, 48.564533927097976, 62.64353353437071 
155.08763714610964, 0.8809412740608027, 22.696325417931966, 109.55048782120524, 48.626343407924786, 62.642838615791156 
154.17147775759622, 1.0151954272442545, 22.696314257988583, 108.85170481524601, 48.69107228080215, 62.64211111680523 
153.25616704577578, 1.1553064199909442, 22.696300927183184, 108.1526340135127, 48.75871220087302, 62.641351168509104 
152.34172993305177, 1.301233044576413, 22.69628521500624, 107.45325956848349, 48.82925444790783, 62.640558908620584 
151.42818972029553, 1.4529325675466809, 22.69626690448831, 106.75356524026695, 48.902689927290865, 62.63973448155272 
150.51556804131243, 1.6103607622855358, 22.69624577254093, 106.05353437786839, 48.97900917102085, 62.638878038489295 
149.60388481982181, 1.77347194212567, 22.696221590307875, 105.35314990019677, 49.0582023387218, 62.63798973746204 
148.69315822895723, 1.9422189939212358, 22.69619412352627, 104.65239427679647, 49.14025921866054, 62.63706974342917 
147.78340465328452, 2.116553411999172, 22.696163132897116, 103.95124950828719, 49.22516922876643, 62.636118228355436 
146.87463865332754, 2.296425332407403, 22.696128374464763, 103.249697106495, 49.31292141764927, 62.635135371293295 
145.96687293258339, 2.4817835673782596, 22.696089600004715, 102.5477180742559, 49.40350446561092, 62.634121358464945 
145.0601183070026, 2.672575639926504, 22.69604655741943, 101.84529288487376, 49.49690668564567, 62.633076383345205 
144.15438367690112, 2.8687478185024404, 22.695998991141437, 101.14240146121267, 49.593116024425235, 62.63200064674479 
143.24967600126604, 3.0702451516217897, 22.695946642543323, 100.43902315440346, 49.69212006326269, 62.63089435689429 
142.34600027440936, 3.2770115023955935, 22.69588925035401, 99.73513672214249, 49.793906019050745, 62.62975772952798 
141.44335950491913, 3.4889895828850763, 22.695826551080792, 99.03072030656149, 49.89846074516869, 62.628590987967705 
140.5417546968512, 3.7061209882082737, 22.695758279436564, 98.32575141164402, 50.00577073235263, 62.627394363206605 
139.6411848331012, 3.928346230327222, 22.69568416877169, 97.6202068801651, 50.11582210952324, 62.62616809399227 
138.74164686088932, 4.155604771446749, 22.695603951509938, 96.9140628701281, 50.22860064456524, 62.62491242690922 
137.84313567928982, 4.38783505695809, 22.6955173595879, 96.20729483067308, 50.34409174505223, 62.62362761646054 
136.94564412873035, 4.624974547863067, 22.69542412489729, 95.49987747742827, 50.46228045891082, 62.62231392514856 
136.04916298238516, 4.866959752617042, 22.69532397972964, 94.79178476727625, 50.58315147501739, 62.62097162355382 
135.1536809393829, 5.113726258331318, 22.695216657222645, 94.08298987250473, 50.70668912372064, 62.61960099041299 
134.2591846197472, 5.365208761278577, 22.69510189180778, 93.37346515431018, 50.832877377283104, 62.61820231269453 
133.36565856098764, 5.6213410966472726, 22.69497941965832, 92.66318213562218, 50.96169985023415, 62.61677588567295 
132.4730852162551, 5.882056267494107, 22.6948489791375, 91.95211147321315, 51.09313979962733, 62.61532201300035 
131.58144495397798, 6.147286472845914, 22.69471031124593, 91.24022292905896, 51.22718012519394, 62.61384100677577 
130.69071605889195, 6.41696313490567, 22.69456316006788, 90.52748534091212, 51.36380336938501, 62.61233318761205 
129.80087473437845, 6.691016925319545, 22.694407273215738, 89.81386659204922, 51.502991717293426, 62.610798884699676 
128.9118951060255, 6.969377790465164, 22.69424240227209, 89.09933358015148, 51.64472699644745, 62.609238435867454 
128.0237492263273, 7.251974975723652, 22.694068303228836, 88.38385218527655, 51.78899067646694, 62.60765218764025 
127.13640708043854, 7.538737048700898, 22.6938847369228, 87.6673872368768, 51.93576386857279, 62.60604049529296 
126.24983659290073, 7.8295919213662755, 22.693691469467158, 86.94990247981823, 52.08502732494037, 62.604403722900834 
125.36400363526225, 8.124466871079319, 22.69348827267823, 86.23136053935166, 52.23676143788666, 62.60274224338608 
124.47887203451195, 8.423288560477953, 22.69327492449704, 85.5117228849861, 52.390946238881185, 62.6010564385601 
123.5944035822529, 8.72598305620385, 22.693051209404988, 84.79094979321174, 52.547561397369826, 62.59934669916152 
122.71055804454205, 9.03247584644352, 22.69281691883329, 84.06900030901805, 52.7065862194004, 62.59761342488989 
121.82729317232746, 9.342691857265462, 22.692571851565393, 83.34583220614981, 52.86799964603875, 62.595857024434295 
120.9445647124159, 9.656555467736862, 22.692315814132062, 82.62140194604184, 53.03178025156308, 62.59407791549748 
120.06232641890941, 9.97399052380462, 22.692048621198467, 81.89566463537052, 53.19790624142427, 62.592276524814565 
119.18053006505097, 10.294920350928548, 22.691770095942797, 81.1685739821573, 53.366355449959094, 62.59045328816676 
118.29912545542565, 10.619267765456067, 22.691480070425904, 80.44008225035728, 53.5371053378429, 62.5886086503894 
117.4180604384665, 10.946955084729952, 22.69117838595155, 79.71014021286273, 53.7101329892677, 62.58674306537453 
116.53728091921955, 11.277904135922856, 22.69086489341658, 78.97869710284841, 53.88541510883095, 62.58485699606759 
115.65673087232759, 11.612036263593644, 22.6905394536508, 78.24570056338321, 54.06292801811975, 62.58295091445827 
114.77635235519553, 11.949272335963077, 22.690201937745915, 77.51109659522851, 54.242647651974565, 62.58102530156513 
113.89608552130808, 12.289532749907435, 22.689852227373187, 76.77482950274177, 54.42454955441564, 62.57908064741403 
113.01586863367304, 12.632737434670949, 22.689490215089332, 76.03684183779914, 54.60860887421488, 62.577117451010224 
112.13563807837106, 12.978805854298912, 22.689115804630255, 75.29707434164894, 54.794800360094825, 62.57513622030367 
111.25532837819718, 13.327657008795525, 22.688728911192218, 74.55546588460295, 54.9830983555358, 62.57313747214798 
110.37487220638619, 13.679209434011403, 22.688329461700143, 73.81195340347047, 55.17347679317125, 62.571121732252315 
109.49420040041956, 14.033381200267582, 22.687917395062467, 73.06647183663506, 55.36590918875045, 62.56908953512651 
108.61324197591753, 14.390089909724159, 22.68749266241243, 72.31895405667086, 55.56036863464659, 62.5670414240191 
107.73192414062775, 14.749252692502806, 22.687055227335332, 71.56933080039201, 55.756827792887606, 62.56497795084807 
106.85017230852662, 15.11078620157434, 22.686605066081444, 70.81753059622373, 55.95525888768559, 62.56289967612479 
105.96791011405823, 15.474606606423132, 22.686142167764324, 70.06347968878127, 56.155633697439534, 62.56080716887008 
105.08505942654125, 15.84062958550225, 22.685666534544207, 69.30710196053748, 56.35792354618531, 62.55870100652321 
