# MEX_intpoint_lon [deg], MEX_intpoint_lat [deg], MEX_intpoint_angle [deg], TGO_intpoint_lon [deg], TGO_intpoint_lat [deg], TGO_intpoint_angle [deg] 
-104.14958316064678, 20.469486968888887, 22.42328469578971, -155.48180876452273, 59.14378001086006, 62.52848161926621 
-105.05492734319031, 20.096454596169114, 22.42388261624006, -156.28091202624387, 58.92345137106921, 62.530669081091276 
-105.9585736646829, 19.72445032562725, 22.424469870347696, -157.07645111335484, 58.70459958964834, 62.532850959160335 
-106.86061545356132, 19.35356432325399, 22.42504629198439, -157.8685395347699, 58.487260167188815, 62.53502659270768 
-107.76114466128443, 18.983886087875742, 22.425611727935156, -158.65728722574949, 58.27146797486954, 62.53719532737459 
-108.66025183539959, 18.615504468930254, 22.426166037917856, -159.4428006687322, 58.05725727283026, 62.539356515393926 
-109.55802609400841, 18.248507683475975, 22.42670909458716, -160.2251830098895, 57.84466172754448, 62.541509515767245 
-110.4545551015008, 17.882983332398503, 22.427240783522976, -161.0045341715282, 57.63371442823851, 62.54365369443436 
-111.34992504543716, 17.519018415779566, 22.427761003203383, -161.78095096046826, 57.42444790240134, 62.54578842443544 
-112.24422061446568, 17.156699347396483, 22.42826966496216, -162.55452717252254, 57.21689413042784, 62.54791308606555 
-113.13752497717131, 16.796111968321576, 22.428766692930957, -163.32535369320712, 57.01108455943576, 62.55002706702174 
-114.0299197617611, 16.43734155959364, 22.429252023966324, -164.09351859480742, 56.807050116295095, 62.55212976254268 
-114.92148503649764, 16.080472853934797, 22.42972560756161, -164.85910722992654, 56.6048212199068, 62.554220575540675 
-115.8122992908025, 15.72559004648809, 22.430187405744018, -165.62220232163924, 56.404427792765794, 62.5562989167263 
-116.70243941695637, 15.372776804553135, 22.430637392956847, -166.38288405037287, 56.20589927184188, 62.55836420472565 
-117.59198069233305, 15.022116276298112, 22.43107555592723, -167.14123013763592, 56.009264618810384, 62.56041586619011 
-118.48099676210923, 14.673691098428701, 22.43150189351944, -167.8973159267095, 55.814552329662995, 62.562453335898994 
-119.3695596224009, 14.327583402795504, 22.43191641657419, -168.6512144604178, 55.621790443727875, 62.564476056854545 
-120.25773960378318, 13.983874821923402, 22.432319147733953, -169.4029965560876, 55.43100655212666, 62.5664834803702 
-121.14560535515776, 13.642646493447547, 22.432710121254605, -170.1527308778065, 55.24222780569485, 62.56847506615134 
-122.03322382793766, 13.303979063442293, 22.433089382803804, -170.9004840060843, 55.05548092239061, 62.57045028236921 
-122.92066026052743, 12.967952688630644, 22.433456989246267, -171.64632050502084, 54.87079219421647, 62.572408605727766 
-123.80797816308004, 12.634647037463637, 22.433813008416188, -172.39030298707956, 54.68818749367634, 62.574349521523715 
-124.69523930252139, 12.304141290059938, 22.434157518877345, -173.1324921755625, 54.50769227979034, 62.57627252369987 
-125.58250368783597, 11.976514136998142, 22.434490609670945, -173.87294696488036, 54.32933160368804, 62.5781771148917 
-126.46982955561495, 11.651843776955275, 22.43481238005176, -174.6117244787078, 54.1531301138004, 62.58006280646735 
-127.35727335587302, 11.330207913186511, 22.4351229392129, -175.34888012611057, 53.97911206066943, 62.58192911856152 
-128.24488973814493, 11.01168374884325, 22.43542240599947, -176.08446765572896, 53.80730130139415, 62.58377558010276 
-129.13273153787915, 10.696347981127543, 22.435710908611636, -176.8185392080982, 53.63772130373004, 62.585601728834774 
-130.02084976314933, 10.384276794283258, 22.43598858429738, -177.55114536618476, 53.47039514985933, 62.58740711133165 
-130.90929358171158, 10.07554585142537, 22.436255579035592, -178.28233520421287, 53.30534553984773, 62.58919128300745 
-131.79811030843712, 9.770230285211293, 22.436512047209554, -179.0121563348547, 53.14259479480331, 62.590953808119764 
-132.6873453931571, 9.468404687359213, 22.436758151271615, -179.74065495485382, 52.982164859752466, 62.592694259767924 
-133.57704240895885, 9.170143097020862, 22.436994061399307, 179.53212411085084, 52.82407730624688, 62.59441221988606 
-134.46724304097742, 8.875518988017774, 22.437219955143405, 178.80613736643573, 52.66835333471532, 62.59610727923045 
-135.35798707573068, 8.584605254952105, 22.437436017068432, 178.08134260387598, 52.51501377657345, 62.597779037362265 
-136.24931239104856, 8.29747419820522, 22.43764243838601, 177.357698862941, 52.364079096103964, 62.59942710262531 
-137.14125494665169, 8.014197507839285, 22.4378394165817, 176.6351663924454, 52.21556939211956, 62.60105109211905 
-138.03384877543687, 7.734846246419363, 22.438027155035574, 175.9137066126996, 52.06950439942002, 62.60265063166724 
-138.92712597553054, 7.4594908307754295, 22.43820586263736, 175.19328207910698, 51.92590349005481, 62.604225355782354 
-139.82111670317286, 7.188201012726501, 22.438375753396304, 174.47385644685662, 51.78478567440206, 62.60577490762542 
-140.715849166499, 6.9210458587908015, 22.43853704604656, 173.7553944366626, 51.64616960207412, 62.60729893896272 
-141.61134962028433, 6.6580937289087565, 22.438689963648464, 173.03786180150317, 51.51007356265983, 62.60879711011821 
-142.5076423617237, 6.399412254207644, 22.438834733186336, 172.3212252943137, 51.37651548631323, 62.61026908992249 
-143.40474972731548, 6.145068313839327, 22.438971585163152, 171.6054526365911, 51.24551294419795, 62.611714555658764 
-144.30269209092222, 5.895128010924924, 22.439100753192886, 170.89051248786754, 51.1170831487962, 62.61313319300539 
-145.20148786308096, 5.649656647642714, 22.43922247359085, 170.1763744160133, 50.991242954091256, 62.61452469597572 
-146.10115349163593, 5.40871869949815, 22.439336984962615, 169.46300886833137, 50.868008855631636, 62.61588876685519 
-147.00170346376763, 5.172377788817128, 22.439444527792148, 168.75038714340604, 50.74739699048514, 62.61722511613587 
-147.9031503094905, 4.940696657506482, 22.439545344029614, 168.03848136367063, 50.629423137090626, 62.61853346244888 
-148.80550460669212, 4.713737139127726, 22.43963967667942, 167.32726444866074, 50.51410271501493, 62.61981353249478 
-149.7087749877844, 4.491560130332969, 22.439727769389037, 166.6167100889204, 50.4014507846225, 62.621065060971766 
-150.61296814803762, 4.274225561713803, 22.439809866039163, 165.90679272052972, 50.2914820466644, 62.6222877905027 
-151.51808885566368, 4.061792368116873, 22.439886210335704, 165.19748750022498, 50.18421084179409, 62.623481471560346 
-152.424139963716, 3.8543184584815706, 22.439957045404263, 164.48877028108154, 50.07965115001597, 62.62464586239174 
-153.33112242386747, 3.6518606852580264, 22.44002261338744, 163.7806175887331, 49.97781659007351, 62.625780728941024 
-154.239035302127, 3.454474813465274, 22.440083155045688, 163.07300659810042, 49.878720418782976, 62.6268858447721 
-155.14787579655146, 3.262215489451762, 22.440138909362158, 162.3659151106044, 49.78237553031868, 62.62796099099022 
-156.05763925700487, 3.0751362094221295, 22.44019011315202, 161.65932153183925, 49.68879445545563, 62.629005956163354 
-156.96831920701345, 2.8932892877961547, 22.440237000676916, 160.95320484968317, 49.597989360775, 62.63002053624335 
-157.87990736776, 2.7167258254671376, 22.440279803264783, 160.2475446128231, 49.509972047838, 62.63100453448707 
-158.79239368425675, 2.545495678028771, 22.44031874893594, 159.5423209096735, 49.4247539523331, 62.63195776137791 
-159.70576635372868, 2.3796474240406718, 22.440354062035546, 158.83751434766765, 49.34234614320178, 62.63288003454731 
-160.62001185623663, 2.2192283334039997, 22.440385962873176, 158.13310603290265, 49.26275932174769, 62.63377117869719 
-161.5351149875598, 2.064284335919526, 22.44041466736986, 157.42907755011868, 49.186003820733504, 62.63463102552316 
-162.4510588943537, 1.9148599901012866, 22.440440386713153, 156.7254109429948, 49.1120896034706, 62.63545941363842 
-163.36782511159228, 1.7709984523194475, 22.440463327020485, 156.0220886947438, 49.041026262905156, 62.63625618849893 
-164.28539360229496, 1.6327414463464183, 22.440483689011625, 155.31909370898927, 48.97282302070528, 62.63702120233007 
-165.20374279953364, 1.5001292333802922, 22.4405016676902, 154.61640929090953, 48.90748872635304, 62.637754314054476 
-166.12284965070697, 1.3732005826195868, 22.440517452035117, 153.91401912863213, 48.84503185624511, 62.6384553892216 
-167.04268966406116, 1.2519927424627517, 22.440531224702053, 153.2119072748649, 48.78546051280582, 62.63912429993919 
-167.96323695743004, 1.1365414124055053, 22.440543161735498, 152.51005812874874, 48.72878242361587, 62.6397609248066 
-168.88446430915855, 1.0268807157078714, 22.440553432291676, 151.80845641791907, 48.67500494056036, 62.64036514885028 
-169.80634321116665, 0.9230431729018584, 22.440562198372806, 151.10708718076236, 48.62413503899904, 62.640936863461455 
-170.72884392410322, 0.8250596762092112, 22.440569614572983, 150.40593574885494, 48.57617931696186, 62.64147596633615 
-171.65193553453054, 0.7329594649369112, 22.44057582783599, 149.7049877295723, 48.53114399437269, 62.6419823614179 
-172.5755860140745, 0.6467701019163651, 22.440580977225444, 149.00422898885657, 48.48903491230394, 62.64245595884287 
-173.49976228046611, 0.5665174510497228, 22.440585193707545, 148.30364563413124, 48.449857532264495, 62.642896674888064 
-174.42443026039416, 0.4922256560246201, 22.440588599946715, 147.60322399735136, 48.41361693552351, 62.64330443192203 
-175.34955495408084, 0.42391712025565376, 22.440591310114325, 146.90295061817952, 48.38031782247205, 62.643679158358786 
-176.27510050148612, 0.36161248810820645, 22.44059342971099, 146.20281222727593, 48.34996451202499, 62.64402078861472 
-177.20103025003962, 0.30533062745677536, 22.44059505540232, 145.50279572969401, 48.32256094106464, 62.64432926306887 
-178.1273068237925, 0.2550886136268858, 22.440596274868707, 144.80288818837002, 48.29811066392828, 62.644604528026164 
-179.05389219387678, 0.21090171476572744, 22.440597166669086, 144.10307680769873, 48.276616851940936, 62.64484653568426 
-179.98074775015303, 0.1727833786831297, 22.440597800118997, 143.40334891718442, 48.258082292994885, 62.64505524410349 
179.0921656260759, 0.1407452212002514, 22.440598235183, 142.70369195515914, 48.24250939117727, 62.645230617180786 
178.1648874884143, 0.11479701603946273, 22.440598522381705, 142.00409345255838, 48.229900166446804, 62.64537262462647 
177.23745775091643, 0.09494668628434128, 22.440598702713437, 141.30454101674596, 48.22025625436077, 62.64548124194527 
176.30991661295917, 0.08120029743446945, 22.440598807590742, 140.60502231537905, 48.21357890585277, 62.645556450420514 
175.3823044835817, 0.07356205207505066, 22.44059885879168, 139.9055250603048, 48.20986898706232, 62.645598237102064 
174.45466190543254, 0.07203428617683569, 22.44059886842614, 139.20603699148043, 48.20912697921648, 62.6456065947982 
173.52702947846618, 0.07661746703700754, 22.440598838917, 138.5065458609075, 48.211352978563944, 62.64558152207076 
172.5994477835322, 0.08731019286706068, 22.440598762996487, 137.80703941657293, 48.2165466963619, 62.64552302323436 
171.67195730600002, 0.10410919402888598, 22.440598623717346, 137.10750538638786, 48.22470745891558, 62.64543110835914 
170.74459835956307, 0.1270093359153658, 22.440598394479125, 136.40793146211573, 48.23583420767034, 62.64530579327719 
169.8174110103644, 0.15600362346728422, 22.440598039069368, 135.70830528328165, 48.24992549935619, 62.64514709959276 
168.89043500158553, 0.19108320731332568, 22.440597511719744, 135.00861442105452, 48.26697950618418, 62.644955054696176 
167.9637096786371, 0.23223739151545492, 22.44059675717696, 134.30884636209285, 48.2869940160941, 62.64472969178113 
167.0372739150881, 0.27945364289735963, 22.440595710788415, 133.60898849234624, 48.30996643305273, 62.64447104986592 
166.1111660394678, 0.3327176019290572, 22.440594298602537, 132.9090280808034, 48.33589377740187, 62.64417917381806 
165.18542376306922, 0.3920130951364905, 22.440592437483527, 132.20895226317802, 48.36477268625484, 62.64385411438228 
164.26008410888033, 0.4573221490006601, 22.44059003524047, 131.5087480255231, 48.39659941394059, 62.64349592821229 
163.33518334176415, 0.5286250053067886, 22.44058699077058, 130.8084021877649, 48.43136983249371, 62.64310467790552 
162.41075690000304, 0.605900137900087, 22.44058319421651, 130.10790138714674, 48.46907943218901, 62.64268043204161 
161.48683932831756, 0.6891242708010036, 22.440578527137276, 129.4072320615731, 48.5097233221191, 62.64222326522366 
160.56346421246425, 0.7782723976293259, 22.44057286269286, 128.70638043284384, 48.55329623081274, 62.64173325812301 
159.64066411551002, 0.8733178022831863, 22.440566065841974, 128.0053324897687, 48.59979250689245, 62.641210497526735 
158.71847051587457, 0.9742320808160231, 22.44055799355297, 127.30407397115114, 48.649206119768984, 62.64065507638833 
157.79691374722483, 1.0809851644516328, 22.440548495027397, 126.60259034863076, 48.70153066037024, 62.64006709388092 
156.8760229402991, 1.1935453436748888, 22.440537411936088, 125.90086680937314, 48.756759341902544, 62.63944665545359 
155.95582596672963, 1.3118792933335115, 22.440524578667304, 125.19888823859547, 48.81488500064127, 62.638793872889885 
155.03634938492755, 1.4359520986839105, 22.440509822586755, 124.49663920191577, 48.87590009674834, 62.63810886436896 
154.1176183880826, 1.5657272823125854, 22.44049296430905, 123.79410392751349, 48.93979671511347, 62.63739175452904 
153.19965675432698, 1.7011668318629158, 22.440473817980223, 123.09126628808822, 49.006566566216186, 62.63664267453308 
152.28248679910064, 1.842231228495772, 22.440452191571044, 122.38810978260342, 49.07620098700542, 62.635861762136365 
151.36612932975086, 1.9888794760115545, 22.440427887180633, 121.68461751780112, 49.14869094179302, 62.63504916175595 
150.45060360238958, 2.1410691305603358, 22.440400701349997, 120.98077218947283, 49.22402702315797, 62.634205024542084 
149.53592728102518, 2.298756330866336, 22.44037042538511, 120.27655606347209, 49.302199452857245, 62.63332950845088 
148.62211639897768, 2.4618958288927186, 22.440336845689085, 119.57195095645248, 49.383198082739696, 62.632422778318556 
147.70918532257932, 2.6304410208725235, 22.440299744102997, 118.86693821631498, 49.46701239565872, 62.63148500593675 
146.7971467171559, 2.8043439786319997, 22.440258898254857, 118.16149870234794, 49.553631506379546, 62.63051637012913 
145.88601151527604, 2.9835554811328944, 22.44021408191644, 117.45561276504121, 49.64304416247676, 62.62951705682852 
144.97578888725135, 3.1680250461608184, 22.440165065367246, 116.74926022555694, 49.735238745217494, 62.628487259155015 
144.06648621386185, 3.357700962087937, 22.440111615765353, 116.04242035483693, 49.83020327042549, 62.62742717749438 
143.1581090612772, 3.5525303196390174, 22.44005349752449, 115.33507185232726, 49.92792538932128, 62.62633701957684 
142.2506611581367, 3.7524590435913128, 22.439990472696977, 114.62719282429843, 50.028392389333064, 62.62521700055595 
141.34414437474817, 3.9574319243400176, 22.439922301361857, 113.91876076174039, 50.131591194873444, 62.62406734308733 
140.43855870435868, 4.167392649262749, 22.43984874201797, 113.20975251780833, 50.237508368076085, 62.622888277407206 
139.53390224644727, 4.382283833818061, 22.43976955198108, 112.50014428479706, 50.34613010948704, 62.62168004141033 
138.63017119198457, 4.6020470523150365, 22.439684487784913, 111.78991157061785, 50.457442258704546, 62.62044288072723 
137.727359810602, 4.826622868292813, 22.439593305585294, 111.07902917475303, 50.571430294961466, 62.6191770488007 
136.82546043960792, 5.055950864451026, 22.43949576156702, 110.3674711636611, 50.68807933764391, 62.61788280696099 
135.92446347478756, 5.289969672074446, 22.439391612352836, 109.65521084560399, 50.8073741467398, 62.616560424499625 
135.02435736291898, 5.528616999897084, 22.43928061541399, 108.94222074486802, 50.92929912321023, 62.61521017874193 
134.12512859593647, 5.77182966235361, 22.439162529481884, 108.22847257534741, 51.053838309277296, 62.613832355117786 
133.22676170667145, 6.019543607168132, 22.43903711496024, 107.51393721345895, 51.180975388620496, 62.612427247230066 
132.32923926609791, 6.271693942233028, 22.43890413433716, 106.79858467035453, 51.310693686474934, 62.61099515692138 
131.43254188201084, 6.52821496173249, 22.43876335259671, 106.08238406339724, 51.44297616962304, 62.60953639433814 
130.53664819906368, 6.789040171468717, 22.438614537629313, 105.36530358686457, 51.57780544627246, 62.60805127799226 
129.6415349000922, 7.054102313350192, 22.438457460640496, 104.64731048184196, 51.71516376581125, 62.60654013481979 
128.74717670865104, 7.323333389004969, 22.438291896557438, 103.92837100526657, 51.8550330184323, 62.605003300236945 
127.85354639269104, 7.596664682483489, 22.438117624432845, 103.20845039808154, 51.99739473461802, 62.60344111819242 
126.96061476930592, 7.874026782018534, 22.4379344278454, 102.48751285245757, 52.14223008447591, 62.6018539412169 
126.06835071047733, 8.155349600812182, 22.437742095296556, 101.76552147803773, 52.289519876915996, 62.600242130468324 
125.17672114975078, 8.440562396821743, 22.437540420602993, 101.04243826715965, 52.43924455865973, 62.59860605577395 
124.28569108977476, 8.729593791519642, 22.437329203284087, 100.31822405900667, 52.59138421307065, 62.59694609566792 
123.39522361063912, 9.022371787603884, 22.43710824894422, 99.59283850263823, 52.74591855879575, 62.595262637424966 
122.50527987895038, 9.318823785638603, 22.436877369649032, 98.86624001884738, 52.902826948207064, 62.59355607708951 
121.61581915758485, 9.618876599605949, 22.43663638429552, 98.13838576079114, 53.06208836563146, 62.59182681950034 
120.72679881606307, 9.92245647135322, 22.436385118975043, 97.40923157333721, 53.223681425357256, 62.59007527831038 
119.83817434149276, 10.22948908392076, 22.436123407329152, 96.67873195106877, 53.38758436940504, 62.58830187600173 
118.94989935003056, 10.539899573738776, 22.43585109089756, 95.94683999488561, 53.55377506504994, 62.586507043895296 
118.06192559881676, 10.853612541682804, 22.435568019457833, 95.21350736713877, 53.722231002081905, 62.584691222155385 
117.1742029983413, 11.17055206297957, 22.435274051356306, 94.47868424523239, 53.892929289790104, 62.582854859788775 
116.28667962520298, 11.490641695957372, 22.43496905382985, 93.74231927362403, 54.065846653657026, 62.580998414638074 
115.39930173522873, 11.813804489636036, 22.4346529033181, 93.00435951415274, 54.240959431746866, 62.57912235336948 
114.51201377692402, 12.139962990154338, 22.43432548576548, 92.26475039462012, 54.418243570772844, 62.57722715145435 
113.62475840523018, 12.469039246033578, 22.433986696912918, 91.52343565554854, 54.59767462182649, 62.575313293145136 
112.73747649556938, 12.80095481227847, 22.43363644257874, 90.78035729503597, 54.779227735752244, 62.573381271444575 
111.8501071581636, 13.135630753317393, 22.43327463892819, 90.03545551162556, 54.96287765814888, 62.57143158806901 
110.96258775261774, 13.472987644786423, 22.43290121273152, 89.28866864510411, 55.1485987239794, 62.56946475340487 
110.0748539027646, 13.81294557416245, 22.432516101610073, 88.53993311514078, 55.336364851769595, 62.567481286458936 
109.18683951177306, 14.155424140252547, 22.432119254269974, 87.78918335767482, 55.52614953737477, 62.56548171480152 
108.29847677752775, 14.500342451548416, 22.43171063072343, 87.03635175895705, 55.71792584729319, 62.5634665745031 
107.40969620829419, 14.847619123455624, 22.431290202496893, 86.28136858714792, 55.911666411503795, 62.56143641006395 
106.52042663868926, 15.197172274409617, 22.430857952826102, 85.52416192137055, 56.10734341580471, 62.55939177433676 
105.63059524598357, 15.548919520891173, 22.430413876837576, 84.76465757811535, 56.30492859362768, 62.55733322844224 
104.74012756676838, 15.902777971356057, 22.429957981716377, 84.00277903488885, 56.504393217302976, 62.555261341677415 
