# MEX_intpoint_lon [deg], MEX_intpoint_lat [deg], MEX_intpoint_angle [deg], TGO_intpoint_lon [deg], TGO_intpoint_lat [deg], TGO_intpoint_angle [deg] 
-103.91848896877859, 20.41516920451736, 22.287308124612963, -147.74849663152128, 59.03127333128557, 62.52973146181606 
-104.82792418298406, 20.049285479706636, 22.28788948793108, -148.54135188754552, 58.80758067571001, 62.53195722314683 
-105.73566979626696, 19.684390797804383, 22.288460648100294, -149.33069352052675, 58.5854026440928, 62.534177203363186 
-106.64181616037266, 19.32057449291097, 22.289021443334132, -150.11663517931157, 58.364774587317186, 62.53639073032821 
-107.54645233840883, 18.95792524050652, 22.28957172419763, -150.8992868703423, 58.14573123542308, 62.53859713854537 
-108.44966607578507, 18.596531073551585, 22.29011135362689, -151.67875508393413, 57.92830671592145, 62.54079576934591 
-109.35154377261257, 18.236479397896712, 22.290640206933773, -152.45514291586875, 57.71253457108874, 62.542985971068276 
-110.25217045743916, 17.87785700696378, 22.291158171795626, -153.22855018445793, 57.498447774290135, 62.54516709923008 
-111.15162976220451, 17.520750095663125, 22.291665148230244, -153.99907354323304, 57.286078745378134, 62.54733851669202 
-112.05000389830667, 17.165244273513665, 22.29216104855607, -154.7668065894112, 57.075459365210975, 62.54949959381417 
-112.94737363368094, 16.811424576934588, 22.292645797337748, -155.53183996829054, 56.866620989332695, 62.55164970860459 
-113.84381827079808, 16.459375480679604, 22.293119331317108, -156.29426147372197, 56.65959446085513, 62.55378824685974 
-114.73941562549741, 16.109180908386552, 22.293581599329762, -157.0541561448034, 56.45441012257999, 62.5559146022977 
-115.63424200657786, 15.760924242216607, 22.294032562207434, -157.8116063589391, 56.251097828397214, 62.558028176683365 
-116.52837219607613, 15.414688331559857, 22.29447219266617, -158.56669192140362, 56.04968695399418, 62.560128379945766 
-117.42187943017005, 15.070555500784813, 22.294900475180604, -159.31949015154518, 55.85020640690872, 62.562214630288295 
-118.31483538064981, 14.728607556011765, 22.29531740584456, -160.0700759657617, 55.65268463595714, 62.56428635429078 
-119.20731013690887, 14.388925790890948, 22.295722992218014, -160.81852195737713, 55.45714964006711, 62.56634298700433 
-120.09937218841077, 14.051590991368618, 22.29611725316093, -161.56489847354248, 55.263628976543885, 62.56838397203882 
-120.99108840759615, 13.716683439424886, 22.29650021865386, -162.30927368928272, 55.07214976879673, 62.57040876164263 
-121.88252403319947, 13.384282915769617, 22.29687192960594, -163.05171367880564, 54.88273871355151, 62.57241681677544 
-122.77374265395113, 13.054468701483344, 22.297232437650244, -163.79228248418627, 54.69542208757397, 62.57440760717376 
-123.66480619264738, 12.72731957859229, 22.29758180492698, -164.53104218153507, 54.510225753927116, 62.57638061140922 
-124.5557748905749, 12.40291382956767, 22.29792010385476, -165.26805294475568, 54.327175167785086, 62.57833531693998 
-125.44670729228386, 12.08132923574124, 22.298247416890266, -166.00337310699393, 54.14629538182487, 62.580271220155254 
-126.33766023070721, 11.762643074630597, 22.29856383627665, -166.73705921987502, 53.967611051216345, 62.58218782641311 
-127.22868881263103, 11.446932116168977, 22.298869463781063, -167.46916611062406, 53.79114643822996, 62.5840846500717 
-128.11984640452374, 11.134272617836427, 22.299164410421543, -168.19974693716026, 53.616925416480846, 62.585961214513766 
-129.01118461873912, 10.8247403186903, 22.29944879618382, -168.92885324125197, 53.44497147482696, 62.587817052165214 
-129.9027533001107, 10.518410432295187, 22.29972274972826, -169.6565349998166, 53.27530772093864, 62.58965170450695 
-130.79460051296172, 10.215357638553659, 22.299986408087417, -170.3828406744465, 53.1079568845556, 62.59146472208147 
-131.6867725285571, 9.915656074441348, 22.30023991635462, -171.10781725923727, 52.94294132044692, 62.593255664492624 
-132.57931381303055, 9.619379323651335, 22.30048342736399, -171.83151032699487, 52.780283011089516, 62.595024100400344 
-133.47226701582133, 9.326600405154952, 22.300717101362267, -172.55396407389085, 52.62000356907878, 62.596769607509835 
-134.36567295866112, 9.037391760687822, 22.300941105672987, -173.27522136263607, 52.462124239285714, 62.598491772554915 
-135.25957062515403, 8.751825241171927, 22.301155614353416, -173.99532376423846, 52.30666590077348, 62.600190191276624 
-136.15399715099642, 8.469972092086511, 22.30136080784462, -174.71431159840762, 52.15364906848622, 62.60186446839672 
-137.0489878148862, 8.191902937802773, 22.30155687261532, -175.43222397266751, 52.003093894722284, 62.60351421758625 
-137.94457603017474, 7.917687764899226, 22.30174400079974, -176.1490988202352, 51.855020170403705, 62.60513906142968 
-138.84079333731617, 7.6473959044766415, 22.301922389830263, -176.86497293672176, 51.70944732615306, 62.606738631384495 
-139.73766939717294, 7.381096013494237, 22.30209224206506, -177.57988201570865, 51.56639443318883, 62.60831256773668 
-140.63523198523683, 7.1188560551501, 22.302253764411407, -178.29386068325127, 51.425880204049434, 62.60986051955207 
-141.53350698682806, 6.860743278331968, 22.30240716794508, -179.00694253135836, 51.28792299315638, 62.61138214462399 
-142.4325183933352, 6.606824196166188, 22.302552667526378, -179.71916015049527, 51.15254079722597, 62.61287710941732 
-143.33228829956204, 6.357164563695207, 22.302690481413272, 179.56945483884442, 51.01975125553913, 62.61434508900906 
-144.23283690224633, 6.111829354716249, 22.302820830872157, 178.8588717554551, 50.88957165007833, 62.615785767025926 
-145.13418249981714, 5.870882737816248, 22.30294393978681, 178.14906082758182, 50.7620189055404, 62.61719883557873 
-146.03634149345788, 5.634388051640286, 22.303060034265968, 177.43999316388934, 50.6371095892336, 62.61858399519433 
-146.93932838954242, 5.402407779433221, 22.303169342250097, 176.73164072519992, 50.514859910867294, 62.619940954744706 
-147.84315580350992, 5.175003522896666, 22.303272093117876, 176.02397629696307, 50.395285722241795, 62.62126943137407 
-148.74783446524518, 4.952235975405419, 22.303368517292917, 175.31697346242152, 50.27840251684631, 62.6225691504237 
-149.6533732260288, 4.734164894630208, 22.303458845851175, 174.6106065764414, 50.16422542937222, 62.623839845355 
-150.55977906712116, 4.520849074615367, 22.303543310129726, 173.90485073997303, 50.05276923514872, 62.625081257670765 
-151.4670571100412, 4.312346317362673, 22.303622141337165, 173.19968177511223, 49.94404834950788, 62.62629313683531 
-152.3752106286001, 4.108713403974366, 22.303695570166486, 172.49507620073277, 49.83807682708575, 62.62747524019296 
-153.2842410627466, 3.9100060654106326, 22.303763826410574, 171.7910112086613, 49.734868361065686, 62.628627332886126 
-154.19414803427773, 3.7162789529187688, 22.303827138581166, 171.087464640368, 49.63443628237071, 62.629749187771985 
-155.10492936446613, 3.527585608192916, 22.303885733531565, 170.38441496414708, 49.53679355881007, 62.630840585338966 
-156.0165810936507, 3.3439784333253506, 22.303939836083625, 169.68184125276198, 49.441952794186804, 62.63190131362297 
-156.92909750283388, 3.165508660611668, 22.30398966865962, 168.97972316153184, 49.34992622737101, 62.632931168123 
-157.84247113732397, 2.992226322273759, 22.304035450919365, 168.27804090683645, 49.26072573134486, 62.633929951717334 
-158.7566928324565, 2.8241802201660033, 22.304077399403113, 167.57677524501756, 49.17436281222445, 62.634897474579795 
-159.67175174142398, 2.661417895531042, 22.304115727180697, 166.87590745165605, 49.09084860826337, 62.63583355409626 
-160.587635365237, 2.503985598872685, 22.30415064350742, 166.17541930120433, 49.010193888843126, 62.63673801478225 
-161.50432958483478, 2.351928260014401, 22.30418235348703, 165.47529304695564, 48.932409053454876, 62.63761068820104 
-162.42181869535742, 2.205289458412328, 22.304211057742382, 164.77551140133113, 48.85750413067734, 62.63845141288297 
-163.34008544258512, 2.0641113937923676, 22.30423695209412, 164.07605751646716, 48.78548877715484, 62.639260034246036 
-164.25911106154456, 1.9284348571810486, 22.304260227247788, 163.3769149650862, 48.716372276579975, 62.64003640451774 
-165.17887531727402, 1.7982992024000615, 22.30428106848994, 162.678067721635, 48.650163538684865, 62.64078038265872 
-166.09935654773466, 1.6737423180939466, 22.304299655393397, 161.97950014367402, 48.58687109824476, 62.641491834287876 
-167.0205317088459, 1.5548006003602322, 22.304316161532274, 161.2811969535039, 48.52650311409776, 62.64217063160989 
-167.94237642161784, 1.4415089260505203, 22.304330754207086, 160.58314322001377, 48.46906736818421, 62.642816653344234 
-168.86486502134508, 1.3339006268101599, 22.304343594180175, 159.88532434073838, 48.4145712646091, 62.643429784657094 
-169.78797060882047, 1.2320074639230867, 22.304354835422018, 159.18772602411, 48.36302182873066, 62.64400991709496 
-170.71166510351895, 1.1358596040269844, 22.30436462486855, 158.49033427189275, 48.314425706278264, 62.644556948521526 
-171.63591929869577, 1.0454855957622617, 22.30437310219002, 157.7931353617872, 48.26878916250251, 62.645070783056624 
-172.56070291833547, 0.9609123474165973, 22.30438039957147, 157.09611583019245, 48.22611808136013, 62.64555133101837 
-173.48598467588178, 0.8821651056246219, 22.30438664150538, 156.39926245511538, 48.18641796473648, 62.645998508868075 
-174.41173233467117, 0.8092674351800105, 22.304391944596457, 155.70256223921527, 48.14969393170783, 62.64641223915825 
-175.33791276998727, 0.7422412000146806, 22.304396417379145, 155.0060023929728, 48.11595071784579, 62.64679245048388 
-176.26449203264616, 0.6811065453970847, 22.304400160147853, 154.30957031797402, 48.08519267456609, 62.64713907743666 
-177.19143541401726, 0.625881881398433, 22.304403264800207, 153.61325359029811, 48.05742376852341, 62.647452060563076 
-178.1187075123782, 0.576583867672709, 22.30440581469361, 152.9170399439998, 48.03264758105425, 62.647731346325365 
-179.04627230049724, 0.5332273995927078, 22.30440788451518, 152.22091725467644, 48.010867307669336, 62.64797688706663 
-179.97409319433208, 0.49582559578096824, 22.30440954016531, 151.5248735231109, 47.992085757597216, 62.64818864097897 
179.09786687727154, 0.4643897870706118, 22.304410838654977, 150.82889685898053, 47.97630535337997, 62.64836657207585 
178.16964540200155, 0.43892950692719174, 22.30441182801699, 150.1329754646239, 47.96352813052272, 62.64851065016764 
177.2412802127448, 0.4194524833587661, 22.30441254723117, 149.4370976188559, 47.95375573719741, 62.648620850841425 
176.31280941562335, 0.4059646323371313, 22.304413026163754, 148.7412516608229, 47.94698943400207, 62.6486971554444 
175.384271317531, 0.3984700527489105, 22.304413285520862, 148.04542597388973, 47.94323009377603, 62.648739551071195 
174.4557043533016, 0.3969710228910284, 22.304413336816356, 147.34960896954902, 47.942478201471644, 62.64874803055496 
173.52714701264253, 0.4014679985204524, 22.3044131823539, 146.6537890713456, 47.94473385408296, 62.64872259246255 
172.59863776696724, 0.4119596124638713, 22.3044128152234, 145.95795469880724, 47.94999676063143, 62.64866324109363 
171.67021499626136, 0.42844267578840634, 22.30441221931171, 145.26209425137273, 47.958266242208715, 62.64856998648337 
170.7419169161168, 0.450912180529972, 22.304411369327745, 144.5661960923102, 47.96954123207658, 62.64844284440963 
169.81378150506782, 0.479361303971522, 22.304410230841782, 143.8702485326163, 47.983820275823426, 62.64828183640337 
168.88584643236092, 0.5137814144589595, 22.304408760339037, 143.17423981488807, 48.00110153157716, 62.64808698976358 
167.95814898628973, 0.554162078738123, 22.304406905287394, 142.47815809715948, 48.02138277027371, 62.64785833757552 
167.03072600322275, 0.6004910707918938, 22.304404604219194, 141.78199143669312, 48.044661375980596, 62.647595918733195 
166.10361379744955, 0.6527543821525829, 22.304401786826986, 141.08572777371944, 48.07093434627436, 62.64729977796526 
165.17684809196737, 0.7109362336601074, 22.304398374073102, 140.38935491511367, 48.100198292671095, 62.64696996586486 
164.25046395032643, 0.7750190886331785, 22.30439427831293, 139.69286051800194, 48.13244944110863, 62.64660653892306 
163.3244957096474, 0.8449836674163201, 22.30438940343167, 138.99623207328716, 48.16768363247911, 62.64620955956564 
162.39897691492058, 0.9208089632622702, 22.30438364499451, 138.2994568890856, 48.20589632321028, 62.64577909619381 
161.47394025469052, 1.0024722595056397, 22.304376890409824, 137.60252207406364, 48.24708258589396, 62.645315223227925 
160.54941749822473, 1.0899491479804877, 22.304369019105426, 136.90541452066577, 48.29123710995976, 62.64481802115478 
159.62543943425865, 1.1832135486313191, 22.30435990271739, 136.20812088822262, 48.33835420239184, 62.64428757657792 
158.70203581140404, 1.2822377302642425, 22.30434940529137, 135.51062758592929, 48.38842778848696, 62.64372398227136 
157.7792352803003, 1.3869923323821325, 22.30433738349611, 134.81292075568243, 48.441451412651006, 62.64312733723589 
156.85706533758255, 1.4974463880454694, 22.304323686848775, 134.11498625476503, 48.49741823923187, 62.64249774675863 
155.9355522717332, 1.6135673476980976, 22.304308157951933, 133.41680963836743, 48.556321053385766, 62.64183532247517 
155.0147211108764, 1.7353211038952858, 22.304290632741758, 132.7183761419319, 48.61815226197442, 62.64114018243428 
154.0945955725687, 1.862672016869692, 22.304270940747198, 132.019670663309, 48.682903894489876, 62.64041245116514 
153.17519801563105, 1.9955829408693793, 22.304248905359795, 131.32067774471176, 48.75056760400408, 62.63965225974704 
152.25654939406095, 2.134015251200734, 22.30422434411362, 130.62138155445493, 48.821134668139734, 62.63885974588098 
151.33866921305608, 2.277928871908158, 22.304197068975185, 129.92176586846477, 48.89459599005908, 62.638035053963414 
150.421575487174, 2.427282304021637, 22.304166886642857, 129.22181405154478, 48.970942099466896, 62.63717833516195 
149.505284700645, 2.582032654302766, 22.304133598855227, 128.5215090383822, 49.050163153624155, 62.636289747492576 
148.58981176984884, 2.742135664419491, 22.30409700270833, 127.82083331427916, 49.13224893836806, 62.63536945589845 
147.67517000795925, 2.9075457404797627, 22.304056890980963, 127.11976889559207, 49.21718886913462, 62.63441763233003 
146.76137109175394, 3.0782159828544473, 22.304013052468, 126.41829730986204, 49.30497199197948, 62.63343445582631 
145.8484250305802, 3.2540982162202563, 22.303965272320937, 125.71639957561801, 49.39558698459232, 62.63242011259713 
144.93634013746248, 3.43514301975384, 22.30391333239548, 125.01405618183419, 49.48902215730046, 62.63137479610594 
144.0251230023299, 3.621299757409236, 22.303857011605572, 124.31124706702161, 49.58526545405681, 62.63029870715362 
143.11477846733848, 3.812516608211506, 22.303796086283462, 123.60795159793413, 49.684304453407115, 62.629192053962214 
142.2053096042557, 4.00874059650073, 22.303730330545225, 122.90414854786681, 49.78612636943138, 62.628055052259036 
141.29671769387176, 4.209917622061694, 22.30365951666146, 122.1998160745246, 49.89071805265423, 62.62688792536081 
140.38900220739623, 4.41599249007606, 22.303583415432417, 121.49493169743845, 49.99806599091852, 62.62569090425732 
139.48216078979527, 4.6269089408354045, 22.303501796567314, 120.78947227490383, 50.108156310216636, 62.62446422769491 
138.5761892450199, 4.842609679155185, 22.303414429067114, 120.08341398041695, 50.22097477547341, 62.62320814225897 
137.67108152307355, 5.063036403431517, 22.303321081610438, 119.37673227858181, 50.33650679127467, 62.62192290245589 
136.76682970886338, 5.288129834284485, 22.303221522941936, 118.6694019004608, 50.454737402535045, 62.62060877079362 
135.863424012776, 5.517829742733926, 22.30311552226284, 117.96139681833951, 50.575651295098375, 62.61926601786113 
134.9608527629186, 5.752074977855471, 22.303002849622864, 117.252690219876, 50.69923279626418, 62.61789492240615 
134.05910239896158, 5.990803493866904, 22.302883276313256, 116.54325448160304, 50.82546587523294, 62.61649577141131 
133.15815746751926, 6.233952376597154, 22.302756575260222, 115.83306114175046, 50.95433414346315, 62.61506886016818 
132.25800061900236, 6.481457869292397, 22.302622521418403, 115.1220808723531, 51.085820854932486, 62.61361449234927 
131.35861260587728, 6.733255397716094, 22.302480892163725, 114.41028345060903, 51.219908906295466, 62.61213298007746 
130.459972282264, 6.989279594502166, 22.302331467685228, 113.69763772945021, 51.356580836929574, 62.610624643992885 
129.56205660480632, 7.249464322722686, 22.302174031375262, 112.98411160728726, 51.495818828861395, 62.60908981331696 
128.6648406347474, 7.513742698634036, 22.302008370217585, 112.26967199688671, 51.63760470656442, 62.607528825913384 
127.76829754114479, 7.7820471135675975, 22.301834275172897, 111.55428479333935, 51.78191993661938, 62.60594202834576 
126.87239860515865, 8.054309254933528, 22.30165154156111, 110.83791484107462, 51.92874562722805, 62.6043297759319 
125.97711322534958, 8.330460126308562, 22.301459969440135, 110.12052589987499, 52.07806252757088, 62.602692432794264 
125.08240892392321, 8.610430066580708, 22.30125936398042, 109.40208060984257, 52.22985102699859, 62.601030371906546 
124.18825135385988, 8.894148768126566, 22.30104953583488, 108.68254045526675, 52.384091154047354, 62.59934397513619 
123.29460430687126, 9.181545293998578, 22.300830301503726, 107.96186572734143, 52.54076257526708, 62.59763363328261 
122.40142972212647, 9.472548094102384, 22.30060148369365, 107.2400154856763, 52.6998445938515, 62.595899746110796 
121.50868769569396, 9.76708502034591, 22.300362911670934, 106.51694751854565, 52.861316148058535, 62.59414272238028 
120.61633649064763, 10.065083340744682, 22.30011442160798, 105.79261830181493, 53.02515580940931, 62.592362979869165 
119.72433254778906, 10.366469752469147, 22.299855856922857, 105.06698295648323, 53.19134178065288, 62.59056094539323 
118.83263049694077, 10.671170393822615, 22.299587068611338, 104.339995204777, 53.35985189348393, 62.588737054819475 
117.941183168769, 10.979110855139563, 22.29930791557098, 103.61160732472776, 53.53066360600016, 62.586891753074454 
117.04994160709865, 11.290216188596657, 22.29901826491695, 102.88177010316353, 53.703753999884746, 62.58502549414685 
116.15885508168566, 11.60441091693043, 22.298717992289003, 102.15043278704114, 53.87909977729983, 62.5831387410844 
115.26787110141831, 11.921619041057173, 22.298406982149196, 101.41754303304343, 54.056677257475194, 62.58123196598464 
114.37693542792098, 12.241764046592888, 22.298085128070177, 100.68304685536174, 54.23646237297656, 62.579305649979844 
113.48599208954013, 12.564768909272265, 22.297752333013293, 99.9468885715823, 54.41843066563657, 62.57736028321541 
112.59498339569585, 12.890556099267938, 22.29740850959651, 99.2090107465898, 54.60255728213121, 62.57539636482196 
111.70384995158803, 13.21904758441233, 22.297053580351413, 98.46935413440019, 54.788816969183294, 62.573414402880964 
110.81253067325011, 13.550164832326594, 22.296687477969275, 97.72785761782946, 54.97718406837412, 62.57141491438349 
109.92096280294986, 13.883828811462216, 22.296310145535593, 96.98445814590283, 55.16763251054328, 62.5693984251824 
109.02908192494101, 14.219959991062717, 22.29592153675293, 96.23909066890477, 55.3601358097557, 62.56736546993727 
108.1368219815752, 14.558478340054446, 22.29552161615163, 95.49168807096581, 55.554667056814246, 62.56531659205275 
107.24411528978993, 14.899303324876636, 22.295110359288216, 94.74218110008006, 55.75119891229479, 62.563252343609214 
106.35089255799333, 15.242353906262906, 22.29468775293112, 93.99049829544151, 55.94970359907977, 62.56117328528666 
105.45708290337315, 15.587548534987372, 22.29425379523349, 93.23656591198501, 56.150152894365256, 62.55907998628095 
104.56261386966278, 15.934805146590538, 22.293808495892815, 92.48030784201276, 56.35251812111481, 62.556973024212844 
