# MEX_intpoint_lon [deg], MEX_intpoint_lat [deg], MEX_intpoint_angle [deg], TGO_intpoint_lon [deg], TGO_intpoint_lat [deg], TGO_intpoint_angle [deg] 
-104.73725271118872, 20.603179811263328, 22.779792182883092, -176.95382920173662, 58.88563489020111, 62.53445218196012 
-105.6315806520672, 20.21181899333084, 22.78043366840391, -177.7385137426912, 58.657645600023805, 62.536727407680715 
-106.52419916201114, 19.821589997592014, 22.781063236821097, -178.51975557039594, 58.431219496136265, 62.53899659223497 
-107.41520919761459, 19.43258487769305, 22.78168071062978, -179.2976682820904, 58.20639171066265, 62.541259048811256 
-108.30471010188108, 19.04489500403203, 22.78228592675506, 179.92763824650314, 57.98319676745726, 62.543514097546 
-109.1927995838713, 18.65861108593851, 22.782878736571522, 179.15605772823412, 57.76166860025696, 62.5457610657144 
-110.07957369952177, 18.27382319287979, 22.78345900590534, 178.38748733677988, 57.54184056979317, 62.54799928791339 
-110.96512683349175, 17.890620774661166, 22.784026615018956, 177.6218275839109, 57.323745479915125, 62.550228106236176 
-111.84955168190692, 17.509092680589326, 22.784581458578497, 176.8589822015743, 57.10741559277292, 62.55244687043868 
-112.73293923587804, 17.12932717757022, 22.785123445603972, 176.0988580286106, 56.89288264310698, 62.554654938098075 
-113.61537876568389, 16.751411967114517, 22.785652499402307, 175.34136490192202, 56.68017785168761, 62.556851674762925 
-114.49695780551637, 16.375434201225556, 22.786168557483506, 174.5864155519151, 56.46933193794664, 62.559036454095256 
-115.37776213869623, 16.001480497146442, 22.78667157145989, 173.83392550204636, 56.26037513184071, 62.561208658004496 
-116.25787578327616, 15.62963695094415, 22.787161506928687, 173.08381297230306, 56.053337184983576, 62.56336767677367 
-117.13738097795735, 15.2599891499105, 22.787638343338248, 172.33599878645828, 55.8482473810836, 62.565512909176874 
-118.01635816825423, 14.892622183760738, 22.78810207383786, 171.59040628294252, 55.64513454572004, 62.567643762589505 
-118.89488599284967, 14.527620654612367, 22.788552705111634, 170.84696122918152, 55.444027055490466, 62.56975965309014 
-119.77304127009221, 14.165068685727592, 22.78899025719658, 170.10559173925284, 55.244952846560025, 62.57186000555455 
-120.65089898459361, 13.805049929004618, 22.789414763285166, 169.36622819472115, 55.04793942264167, 62.573944253742184 
-121.52853227389323, 13.447647571203985, 22.78982626951262, 168.62880316851522, 54.85301386243496, 62.5760118403747 
-122.40601241516269, 13.092944338897448, 22.790224834729315, 167.89325135171666, 54.66020282655009, 62.5780622172071 
-123.28340881193195, 12.741022502128265, 22.79061053025859, 167.1595094831331, 54.46953256394191, 62.580094845091025 
-124.16078898082426, 12.391963876773048, 22.790983439640243, 166.42751628153582, 54.28102891787818, 62.58210919403117 
-125.03821853829446, 12.045849825596521, 22.791343658360145, 165.6972123804441, 54.0947173314646, 62.58410474323387 
-125.91576118737215, 11.702761257992119, 22.791691293566302, 164.96854026534518, 53.910622852748496, 62.58608098114881 
-126.79347870441613, 11.362778628402552, 22.792026463771766, 164.2414442132417, 53.7287701394218, 62.5880374055038 
-127.67143092589481, 11.025981933415865, 22.79234929854482, 163.51587023442363, 53.54918346314319, 62.58997352333233 
-128.5496757352112, 10.692450707534348, 22.792659938186816, 162.79176601636587, 53.371886713498164, 62.591888850994664 
-129.4282690495982, 10.362264017614692, 22.792958533398117, 162.06908086965575, 53.19690340161514, 62.59378291419213 
-130.30726480711513, 10.035500455979946, 22.79324524493264, 161.34776567586036, 53.02425666345487, 62.59565524797522 
-131.1867149537815, 9.712238132204993, 22.79352024324136, 160.62777283724526, 52.853969262789604, 62.59750539674512 
-132.06666943088985, 9.392554663579578, 22.793783708105394, 159.9090562282621, 52.686063593887816, 62.599332914249274 
-132.94717616254448, 9.076527164254118, 22.794035828258988, 159.1915711487235, 52.520561683919645, 62.60113736357104 
-133.82828104347658, 8.76423223307613, 22.794276801003093, 158.4752742785899, 52.35748519509747, 62.60291831711363 
-134.7100279271926, 8.455745940126564, 22.794506831809844, 157.7601236342934, 52.19685542656557, 62.60467535657819 
-135.59245861451592, 8.151143811967664, 22.794726133918676, 157.0460785265291, 52.0386933160523, 62.60640807293698 
-136.47561284258646, 7.8505008156161535, 22.79493492792442, 156.33309951944574, 51.88301944129729, 62.60811606640098 
-137.35952827438598, 7.553891341257699, 22.795133441358065, 155.62114839117186, 51.7298540212663, 62.60979894638257 
-138.2442404888623, 7.2613891837210875, 22.795321908260696, 154.9101880956146, 51.579216917165404, 62.61145633145374 
-139.129782971727, 6.973067522732674, 22.79550056875108, 154.20018272547262, 51.43112763326582, 62.61308784929927 
-140.01618710700504, 6.6889989019746245, 22.795669668587667, 153.49109747640668, 51.28560531755047, 62.61469313666601 
-140.90348216941868, 6.409255206972453, 22.79582945872539, 152.78289861231258, 51.14266876219271, 62.616271839307544 
-141.79169531768804, 6.133907641840581, 22.795980194867933, 152.07555343164583, 51.00233640387737, 62.61782361192543 
-142.6808515888353, 5.863026704916891, 22.79612213701613, 151.36903023474767, 50.86462632397405, 62.619348118106316 
-143.57097389357997, 5.596682163320206, 22.796255549012884, 150.6632982921248, 50.72955624857192, 62.62084503025578 
-144.46208301291412, 5.334943026467413, 22.796380698085443, 149.95832781363802, 50.59714354838527, 62.622314029528994 
-145.35419759594828, 5.077877518589773, 22.796497854385446, 149.25408991855548, 50.46740523853853, 62.623754805758026 
-146.24733415911828, 4.825553050290822, 22.796607290527515, 148.55055660642964, 50.34035797823941, 62.62516705737679 
-147.14150708684477, 4.578036189191132, 22.796709281126798, 147.84770072875764, 50.216018070348014, 62.62655049134295 
-148.03672863373583, 4.335392629708237, 22.79680410233629, 147.1454959613871, 50.09440146085044, 62.62790482305794 
-148.93300892842328, 4.097687162022722, 22.79689203138432, 146.4439167776311, 49.9755237382439, 62.62922977628443 
-149.83035597912166, 3.864983640284599, 22.796973346113028, 145.74293842205742, 49.859400132841245, 62.63052508306234 
-150.72877568099804, 3.63734495011669, 22.797048324518304, 145.04253688491835, 49.74604551600189, 62.63179048362286 
-151.62827182543742, 3.4148329754748254, 22.797117244291815, 144.3426888771897, 49.635474399296065, 62.63302572630111 
-152.5288461112882, 3.197508564927188, 22.797180382365692, 143.64337180618844, 49.52770093360911, 62.63423056744788 
-153.43049815816673, 2.9854314974179554, 22.797238014460664, 142.94456375173914, 49.42273890819244, 62.635404771339935 
-154.33322552189816, 2.7786604475829875, 22.79729041463794, 142.24624344286227, 49.320601749667254, 62.636548110090025 
-155.23702371216666, 2.5772529506876642, 22.79733785485562, 141.54839023495705, 49.22130252098722, 62.63766036355614 
-156.14188621244287, 2.3812653672595174, 22.79738060453029, 140.85098408745313, 49.124853920365936, 62.63874131925042 
-157.04780450225218, 2.190752847490495, 22.79741893010408, 140.1540055419076, 49.03126828017494, 62.63979077224829 
-157.95476808184188, 2.0057692954856154, 22.797453094618152, 139.45743570052267, 48.94055756581758, 62.64080852509731 
-158.86276449929937, 1.8263673334369275, 22.797483357292787, 138.76125620506298, 48.852733374584325, 62.64179438772685 
-159.7717793801671, 1.6525982658031773, 22.797509973114952, 138.0654492161499, 48.767806934494295, 62.64274817735788 
-160.6817964595936, 1.484512043577278, 22.797533192433708, 137.36999739291326, 48.685789103128286, 62.643669718413946 
-161.59279761705244, 1.3221572287248458, 22.79755326056401, 136.67488387298062, 48.60669036645786, 62.644558842432865 
-162.5047629136531, 1.165580958878217, 22.797570417399488, 135.98009225278503, 48.530520837675134, 62.645415387979654 
-163.4176706320614, 1.0148289123711371, 22.797584897034707, 135.28560656817388, 48.45729025602767, 62.646239200560906 
-164.33149731903652, 0.8699452736997748, 22.79759692739733, 134.59141127530086, 48.38700798566285, 62.64703013254067 
-165.24621783058524, 0.7309726994962649, 22.797606729890763, 133.8974912317855, 48.319683014485584, 62.64778804305817 
-166.1618053797242, 0.5979522851006254, 22.79761451904772, 133.2038316781236, 48.255323953033574, 62.64851279794733 
-167.07823158683215, 0.47092353181684604, 22.797620502195127, 132.51041821933399, 48.1939390333735, 62.6492042696585 
-167.99546653256553, 0.34992431493826825, 22.79762487913092, 131.8172368068266, 48.13553610802224, 62.649862337182455 
-168.9134788133006, 0.23499085262643604, 22.797627841813032, 131.1242737204786, 48.08012264889591, 62.65048688597685 
-169.8322355990567, 0.12615767572639366, 22.797629574061045, 130.43151555090427, 48.02770574629063, 62.651077807895255 
-170.75170269384589, 0.023457598599887584, 22.797630251270967, 129.7389491819064, 47.97829210789765, 62.65163500111884 
-171.67184459838413, -0.07307830894395197, 22.797630040143346, 129.04656177309676, 47.93188805785605, 62.65215837009121 
-172.59262457509112, -0.16342074854314503, 22.797629098425293, 128.35434074267332, 47.888499535845604, 62.65264782545611 
-173.51400471529547, -0.24754221892756895, 22.79762757466654, 127.6622737503433, 47.84813209622263, 62.65310328399822 
-174.4359460085544, -0.3254170402418893, 22.797625607990074, 126.9703486803801, 47.81079090720109, 62.65352466858744 
-175.35840841398706, -0.3970213769777199, 22.797623327877425, 126.27855362480433, 47.776480750081426, 62.65391190812645 
-176.28135093351364, -0.4623332594493876, 22.797620853969132, 125.58687686667798, 47.74520601852912, 62.654264937501814 
-177.20473168688284, -0.5213326037515417, 22.797618295880437, 124.89530686350177, 47.71697071790494, 62.65458369753873 
-178.1285079883647, -0.5740012301406393, 22.79761575303257, 124.20383223070586, 47.69177846464905, 62.65486813495954 
-179.05263642497636, -0.6203228797867616, 22.797613314499905, 123.51244172522462, 47.66963248571993, 62.655118202345825 
-179.97707293610355, -0.6602832298464355, 22.797611058872953, 122.82112422914602, 47.650535618090444, 62.655333858104676 
179.09822710562636, -0.6938699068121256, 22.79760905413771, 122.12986873342655, 47.63449030830173, 62.65551506643867 
178.17330881236933, -0.7210724980987272, 22.79760735757121, 121.43866432166291, 47.621498612076365, 62.65566179731996 
177.248217698142, -0.7418825618326449, 22.79760601565363, 120.74750015391193, 47.611562193991915, 62.655774026468556 
176.32299959511008, -0.7562936348141523, 22.79760506399696, 120.0563654505496, 47.60468232721546, 62.65585173533431 
175.39770056924945, -0.7643012386292541, 22.797604527290368, 119.3652494761615, 47.600859893299905, 62.65589491108351 
174.47236683554596, -0.7659028838926599, 22.79760441926235, 118.6741415234558, 47.60009538204276, 62.65590354658946 
173.54704467289932, -0.7610980726091524, 22.79760474265965, 117.98303089719055, 47.60238889140745, 62.65587764042699 
172.62178033890117, -0.7498882986462101, 22.79760548924308, 117.29190689810738, 47.60774012750761, 62.65581719687166 
171.69661998465477, -0.7322770463164765, 22.797606639800115, 116.60075880686296, 47.61614840465427, 62.65572222590279 
170.77160956980603, -0.7082697870743535, 22.79760816417439, 115.90957586795015, 47.62761264546585, 62.65559274321085 
169.84679477795314, -0.6778739743366464, 22.79761002131196, 115.21834727360084, 47.64213138104071, 62.65542877020897 
168.9222209326008, -0.6410990364427843, 22.797612159324242, 114.52706214766162, 47.65970275119175, 62.65523033404857 
167.99793291382306, -0.5979563677758025, 22.797614515567723, 113.83570952943444, 47.680324504742494, 62.654997467639305 
167.07397507579498, -0.5484593180705863, 22.797617016740062, 113.14427835747341, 47.70399399988388, 62.65473020967281 
166.1503911653494, -0.49262317994119575, 22.797619578992713, 112.4527574533292, 47.730708204590776, 62.654428604650796 
165.22722424171155, -0.4304651746645157, 22.797622108059766, 111.76113550523236, 47.7604636970973, 62.65409270291683 
164.30451659755764, -0.3620044362620263, 22.797624499402858, 111.06940105170652, 47.79325666642938, 62.65372256069217 
163.3823096815387, -0.2872619939267363, 22.79762663837204, 110.3775424651023, 47.829082912993464, 62.65331824011552 
162.46064402240455, -0.20626075284666864, 22.79762840038229, 109.68554793504252, 47.86793784921961, 62.652879809286354 
161.53955915485543, -0.11902547348066878, 22.797629651105442, 108.9934054517693, 47.90981650025728, 62.652407342312095 
160.61909354724168, -0.02558274934649377, 22.79763024667738, 108.30110278938278, 47.954713504721894, 62.65190091935857 
159.69928453122418, 0.0740390166151759, 22.797630033920093, 107.60862748896155, 48.00262311549013, 62.651360626704516 
158.78016823350004, 0.17980963703336028, 22.797628850578377, 106.91596684155392, 48.053539200541834, 62.65078655679863 
157.86177950968892, 0.2916971663855985, 22.797626525570816, 106.22310787102961, 48.10745524384584, 62.65017880832049 
156.9441518804681, 0.40966792848938755, 22.797622879254792, 105.53003731677985, 48.164364346287634, 62.64953748624444 
156.02731747003318, 0.5336865451300803, 22.797617723705084, 104.83674161625495, 48.224259226635766, 62.64886270190613 
155.1113069469544, 0.6637159657466927, 22.797610863005634, 104.14320688732653, 48.28713222254428, 62.648154573072354 
154.1961494674874, 0.7997174980951118, 22.79760209355439, 103.44941891046217, 48.352975291588194, 62.64741322401313 
153.2818726213895, 0.9416508398064375, 22.797591204380357, 102.75536311069912, 48.42178001232883, 62.64663878557671 
152.36850238028168, 1.0894741107568466, 22.797577977472876, 102.06102453940365, 48.49353758540549, 62.64583139526664 
151.4560630485886, 1.2431438861642532, 22.797562188122416, 101.36638785580136, 48.56823883465025, 62.64499119732104 
150.54457721707848, 1.402615230326354, 22.797543605272526, 100.67143730826419, 48.64587420822193, 62.64411834279417 
149.63406571901726, 1.567841730914069, 22.797521991882505, 99.97615671533818, 48.726433779755524, 62.64321298963969 
148.72454758893994, 1.7387755337344633, 22.79749710530023, 99.2805294464959, 48.809907249523135, 62.642275302795326 
147.81604002403702, 1.915367377877071, 22.797468697644714, 98.58453840259705, 48.89628394560217, 62.64130545426944 
146.9085583481416, 2.097566631158213, 22.797436516197898, 97.88816599603925, 48.98555282504641, 62.640303623228725 
146.00211597829832, 2.285321325778513, 22.797400303805063, 97.19139413058085, 49.07770247505563, 62.63926999608678 
145.09672439388467, 2.4785781941096197, 22.79735979928346, 96.49420418081657, 49.17272111413883, 62.638204766593844 
144.19239310824975, 2.6772827045276113, 22.797314737838523, 95.79657697128582, 49.27059659326651, 62.6371081359271 
143.28912964282773, 2.881379097211591, 22.797264851487178, 95.09849275519308, 49.37131639700674, 62.63598031278135 
142.386939503677, 3.0908104198280064, 22.797209869487606, 94.3999311927179, 49.4748676446398, 62.63482151346011 
141.48582616039, 3.3055185630226678, 22.797149518775004, 93.70087132889232, 49.581237091246294, 62.63363196196674 
140.58579102731238, 3.5254442956447383, 22.797083524402662, 93.00129157102135, 49.69041112876265, 62.63241189009516 
139.68683344700676, 3.7505272996288603, 22.797011609987898, 92.30116966562167, 49.80237578699875, 62.6311615375203 
138.7889506758889, 3.980706204464171, 22.796933498162076, 91.60048267485247, 49.91711673461136, 62.62988115188812 
137.89213787196272, 4.215918621181069, 22.796848911024345, 90.89920695241108, 50.034619280027314, 62.62857098890448 
136.99638808457527, 4.456101175789415, 22.7967575705983, 90.197318118865, 50.154868372309984, 62.62723131242298 
136.10169224610925, 4.701189542104426, 22.796659199291078, 89.49479103639014, 50.27784860196262, 62.62586239453174 
135.20803916552995, 4.9511184738990055, 22.796553520354248, 88.79159978288459, 50.40354420166152, 62.624464515638245 
134.31541552369828, 5.205821836324513, 22.79644025834592, 88.08771762542479, 50.53193904691208, 62.62303796455279 
133.42380587036274, 5.465232636544251, 22.796319139593358, 87.38311699303053, 50.663016656620314, 62.62158303856967 
132.53319262273965, 5.729283053527416, 22.796189892655686, 86.67776944870262, 50.79676019357268, 62.62010004354639 
131.64355606559144, 5.997904466953518, 22.796052248785855, 85.97164566069642, 50.933152464815706, 62.61858929398002 
130.7548743527115, 6.271027485180853, 22.795905942391418, 85.26471537299206, 51.07217592192812, 62.617051113081395 
129.867123509725, 6.548581972234819, 22.795750711493444, 84.5569473749207, 51.2138126611766, 62.615485832845835 
128.98027743811494, 6.830497073775459, 22.795586298182993, 83.84830946990418, 51.35804442354671, 62.61389379412121 
128.0943079203834, 7.116701242005787, 22.79541244907454, 83.1387684432639, 51.50485259464002, 62.61227534667233 
127.2091846262601, 7.407122259485831, 22.795228915755686, 82.42829002905208, 51.65421820442815, 62.61063084924182 
126.3248751198706, 7.701687261819821, 22.795035455232743, 81.71683887585691, 51.80612192685412, 62.6089606696073 
125.44134486778013, 8.000322759186641, 22.794831830371365, 81.00437851153109, 51.96054407927096, 62.607265184634215 
124.5585572478296, 8.302954656686607, 22.794617810331847, 80.29087130679024, 52.11746462170745, 62.60554478032489 
123.67647355868459, 8.609508273479825, 22.794393170998436, 79.57627843762633, 52.27686315594991, 62.603799851862625 
122.79505303001966, 8.919908360694413, 22.79415769540206, 78.86055984647747, 52.4387189244292, 62.60203080365149 
121.91425283326461, 9.234079118084725, 22.793911174135893, 78.14367420209435, 52.60301080890118, 62.6002380493511 
121.03402809284222, 9.551944209422766, 22.793653405763443, 77.42557885803932, 52.76971732890856, 62.59842201190618 
120.15433189783126, 9.87342677660759, 22.79338419721823, 76.70622980975287, 52.938816640011645, 62.596583123571065 
119.27511531399156, 10.198449452480322, 22.793103364194835, 75.98558165011772, 53.110286531774925, 62.59472182592876 
118.39632739609416, 10.52693437233406, 22.792810731530707, 75.26358752344917, 53.284104425495805, 62.592838569903925 
117.51791520050158, 10.858803184110236, 22.792506133578186, 74.54019907783628, 53.460247371661445, 62.590933815770626 
116.63982379794986, 11.193977057275026, 22.792189414566227, 73.81536641575507, 53.638692047118624, 62.58900803315349 
115.7619962864886, 11.532376690370898, 22.791860428951512, 73.08903804287233, 53.81941475194158, 62.58706170102314 
114.88437380453888, 11.87392231724079, 22.79151904175819, 72.36116081495423, 54.00239140598136, 62.585095307684924 
114.00689554403694, 12.218533711923401, 22.7911651289061, 71.63167988279052, 54.187597545079825, 62.58310935076119 
113.12949876363405, 12.566130192220582, 22.790798577526743, 70.90053863504119, 54.37500831693096, 62.58110433716712 
112.25211880193145, 12.916630621938394, 22.790419286266882, 70.1676786389091, 54.56459847657069, 62.579080783079434 
111.37468909073252, 13.269953411806046, 22.790027165579023, 69.43303957853661, 54.756342381476074, 62.57703921389833 
110.49714116830279, 13.626016519077345, 22.789622137998656, 68.69655919102162, 54.950213986253615, 62.57498016420214 
109.61940469263301, 13.984737445821363, 22.789204138407747, 67.95817319994276, 55.14618683689539, 62.572904177695065 
108.74140745470746, 14.346033235910305, 22.78877311428412, 67.21781524627968, 55.34423406458081, 62.57081180714712 
107.86307539178671, 14.709820470713478, 22.78832902593641, 66.47541681660947, 55.54432837900068, 62.56870361432718 
106.98433260072015, 15.07601526350837, 22.787871846724226, 65.73090716845552, 55.74644206117901, 62.56658016992788 
106.10510135131136, 15.444533252620058, 22.78740156326332, 64.98421325266047, 55.95054695576686, 62.56444205348331 
105.22530209976607, 15.815289593302639, 22.786918175615195, 64.2352596326494, 56.15661446278115, 62.56228985327882 
