# MEX_intpoint_lon [deg], MEX_intpoint_lat [deg], MEX_intpoint_angle [deg], TGO_intpoint_lon [deg], TGO_intpoint_lat [deg], TGO_intpoint_angle [deg] 
-104.00867677384836, 20.436465212962588, 22.340072864771553, -150.67682116538256, 59.08956021052963, 62.529001442063496 
-104.91653191400927, 20.067797042684177, 22.340660648564793, -151.47290964116775, 58.86760118681938, 62.53120743093598 
-105.82269399718223, 19.700133035558444, 22.341238050397983, -152.2654579197999, 58.64713730360681, 62.53340774107526 
-106.72725453410534, 19.333562855975558, 22.341804906799815, -153.0545795973643, 58.42820399101488, 62.53560170621378 
-107.6303037127493, 18.96817550623654, 22.34236106686736, -153.84038466223075, 58.210836053773974, 62.53778866660346 
-108.53193037005663, 18.6040593433029, 22.342906392285624, -154.62297961854932, 57.99506768957393, 62.53996796920129 
-109.43222196511911, 18.24130209482631, 22.343440757331972, -155.40246760527148, 57.78093250640567, 62.54213896784783 
-110.33126455366603, 17.879990874421278, 22.343964048865335, -156.17894851083597, 57.56846353894031, 62.54430102343785 
-111.22914276374618, 17.52021219614544, 22.344476166300442, -156.95251908366012, 57.35769326399117, 62.54645350408323 
-112.12593977249321, 17.16205198815477, 22.34497702156692, -157.72327303857526, 57.148653615102376, 62.5485957852686 
-113.02173728387329, 16.805595605502884, 22.3454665390536, -158.49130115934602, 56.941375996304714, 62.5507272499988 
-113.91661550732134, 16.450927842055545, 22.345944655537952, -159.2566913974097, 56.735891295079014, 62.552847288939205 
-114.81065313717981, 16.098132941493525, 22.346411320100877, -160.01952896697148, 56.53222989456365, 62.5549553005483 
-115.70392733286243, 15.747294607378498, 22.346866494026997, -160.7798964365878, 56.33042168504239, 62.557050691202335 
-116.59651369967142, 15.398496012258821, 22.34731015069058, -161.53787381736876, 56.13049607474655, 62.559132875312976 
-117.4884862702052, 15.051819805793057, 22.34774227542724, -162.2935386479264, 55.932482000003596, 62.56120127543707 
-118.3799174862997, 14.707348121871545, 22.348162865391807, -163.0469660761932, 55.736407934763285, 62.563255322379035 
-119.27087818145425, 14.365162584716991, 22.348571929402254, -163.79822893823226, 55.54230189953087, 62.565294455285915 
-120.1614375636983, 14.02534431394745, 22.348969487770276, -164.54739783415621, 55.35019146973496, 62.56731812173516 
-121.05166319886358, 13.687973928585803, 22.349355572118455, -165.29454120127028, 55.16010378355735, 62.56932577781498 
-121.94162099423087, 13.353131550002118, 22.349730225184523, -166.03972538454934, 54.972065549249876, 62.57131688819768 
-122.83137518252848, 13.020896803775898, 22.35009350061282, -166.78301470455762, 54.78610305196284, 62.573290926205864 
-123.72098830626352, 12.691348820467674, 22.350445462733372, -167.52447152291387, 54.60224216010822, 62.57524737387178 
-124.61052120237545, 12.364566235289956, 22.350786186328786, -168.2641563054039, 54.420508331279656, 62.577185721989515 
-125.50003298720443, 12.040627186669823, 22.351115756389415, -169.00212768283671, 54.24092661775071, 62.57910547016084 
-126.3895810417747, 11.7196093136966, 22.351434267857012, -169.73844250973838, 54.06352167157122, 62.58100612683396 
-127.27922099739742, 11.401589752449517, 22.351741825357305, -170.4731559209747, 53.88831774928152, 62.58288720933625 
-128.16900672160233, 11.086645131202271, 22.352038542921832, -171.20632138638908, 53.715338716262586, 62.58474824390012 
-129.05899030441458, 10.774851564502534, 22.352324543699382, -171.93799076354017, 53.544608050740166, 62.58658876568314 
-129.94922204499443, 10.466284646126564, 22.352599959657525, -172.66821434862064, 53.3761488474596, 62.58840831878154 
-130.83975043866647, 10.161019440910358, 22.352864931274542, -173.3970409256341, 53.209983821047736, 62.590206456238384 
-131.73062216436543, 9.859130475460974, 22.35311960722219, -174.12451781390615, 53.04613530907717, 62.59198274004533 
-132.62188207253328, 9.56069172775305, 22.353364144039823, -174.85069091400138, 52.88462527484817, 62.59373674113928 
-133.5135731735039, 9.265776615617701, 22.353598705800124, -175.57560475211508, 52.7254753099021, 62.595468039393225 
-134.40573662641717, 8.974457984132796, 22.353823463767085, -176.29930252300733, 52.56870663628056, 62.5971762236022 
-135.29841172870738, 8.686808091925418, 22.354038596046582, -177.02182613154307, 52.41434010854283, 62.59886089146362 
-136.1916359062143, 8.402898596399544, 22.354244287230035, -177.74321623289953, 52.26239621555479, 62.60052164955315 
-137.08544470396834, 8.122800537904041, 22.35444072803159, -178.46351227150026, 52.112895082061286, 62.602158113295616 
-137.9798717777052, 7.846584322857989, 22.354628114919464, -179.1827525187327, 51.96585647005356, 62.60376990693145 
-138.87494888616666, 7.57431970585259, 22.354806649741715, -179.90097410950344, 51.821299779943075, 62.6053566634787 
-139.77070588424814, 7.3060757707514385, 22.354976539347042, 179.3817869223165, 51.679244051552665, 62.60691802469104 
-140.66717071705486, 7.041920910812576, 22.355137995201204, 178.66549560950568, 51.5397079649353, 62.60845364101163 
-141.56436941493106, 6.781922807858635, 22.35529123299943, 177.95011801811836, 51.40270984103059, 62.6099631715233 
-142.46232608952752, 6.526148410523408, 22.355436472275372, 177.23562121507572, 51.26826764216879, 62.6114462838954 
-143.36106293097555, 6.274663911605522, 22.355573936007147, 176.52197323667852, 51.13639897243153, 62.61290265432681 
-144.26060020623478, 6.027534724562359, 22.355703850221012, 175.8091430579979, 51.007121077878466, 62.614331967486386 
-145.16095625868422, 5.784825459179855, 22.355826443593074, 175.09710056310465, 50.88045084664839, 62.61573391645011 
-146.0621475090255, 5.5465998964559295, 22.355941947049708, 174.3858165160972, 50.75640480894331, 62.61710820263559 
-146.9641884575684, 5.312920962737909, 22.356050593367137, 173.67526253289097, 50.63499913690376, 62.6184545357342 
-147.86709168796665, 5.083850703156779, 22.35615261677072, 172.96541105373325, 50.51624964438282, 62.6197726336408 
-148.77086787247362, 4.8594502544030975, 22.356248252534403, 172.25623531640943, 50.40017178662686, 62.62106222238142 
-149.6755257787837, 4.639779816892218, 22.356337736581033, 171.54770933010724, 50.28678065987012, 62.62232303603914 
-150.58107227852702, 4.424898626368385, 22.35642130508388, 170.8398078499075, 50.17609100085015, 62.62355481667828 
-151.4875123574796, 4.214864924999736, 22.356499194070018, 170.13250635187123, 50.06811718625124, 62.624757314267214 
-152.39484912755273, 4.009735932018341, 22.356571639026008, 169.4257810086941, 49.96287323208215, 62.62593028659977 
-153.30308384061902, 3.8095678139615305, 22.356638874506434, 168.7196086658998, 49.86037279299486, 62.627073499216024 
-154.21221590423278, 3.6144156545728627, 22.35670113374588, 168.01396681854672, 49.760629161550206, 62.62818672532185 
-155.12224289929674, 3.424333424422833, 22.356758648274685, 167.30883358842138, 49.66365526743675, 62.62926974570828 
-156.03316059972505, 3.239373950311468, 22.35681164753921, 166.60418770169449, 49.56946367664837, 62.63032234867018 
-156.9449629941467, 3.0595888845164967, 22.35686035852688, 165.90000846701648, 49.47806659062632, 62.63134432992491 
-157.8576423096906, 2.8850286739523523, 22.35690500539673, 165.1962757540294, 49.389475845371244, 62.63233549253115 
-158.77118903788784, 2.715742529306742, 22.356945809115732, 164.492969972274, 49.30370291053001, 62.63329564680753 
-159.68559196272165, 2.5517783942226724, 22.35698298710155, 163.79007205047142, 49.220758888462946, 62.63422461025218 
-160.60083819085023, 2.3931829145949672, 22.357016752872116, 163.08756341615882, 49.14065451329575, 62.635122207462615 
-161.5169131840215, 2.240001408051264, 22.35704731570248, 162.3854259756613, 49.06340014996122, 62.635988270056544 
-162.43380079369297, 2.0922778336879295, 22.357074880289396, 161.6836420943807, 48.989005793235044, 62.636822636593465 
-163.35148329786375, 1.9500547621321667, 22.357099646424167, 160.9821945773843, 48.91748106677006, 62.63762515249777 
-164.26994144011888, 1.8133733460015955, 22.35712180867405, 160.28106665027644, 48.84883522213317, 62.63839566998312 
-165.18915447087886, 1.682273290832755, 22.357141556072733, 159.58024194033717, 48.78307713784889, 62.639134047978075 
-166.10910019084184, 1.5567928265498896, 22.357159071820277, 158.8797044579122, 48.72021531845337, 62.63984015205376 
-167.0297549965968, 1.4369686795447858, 22.35717453299295, 158.17943857803937, 48.66025789356255, 62.640513854353195 
-167.9510939283807, 1.322836045437914, 22.35718811026321, 157.4794290222973, 48.60321261695799, 62.64115503352283 
-168.87309071994375, 1.2144285625902465, 22.357199967630365, 156.77966084086268, 48.549086865693674, 62.6417635746459 
-169.79571785048083, 1.1117782864338814, 22.35721026216224, 156.08011939476253, 48.497887639227, 62.64233936917872 
-170.71894659857875, 1.014915664688354, 22.357219143748047, 155.38079033830908, 48.449621558577086, 62.64288231488866 
-171.64274709812292, 0.9238695135276479, 22.35722675486299, 154.68165960170475, 48.40429486551292, 62.64339231579534 
-172.56708839609797, 0.8386669947613633, 22.357233230344793, 153.98271337380555, 48.36191342177463, 62.64386928211431 
-173.49193851221239, 0.7593335940910314, 22.35723869718247, 153.2839380850312, 48.32248270832983, 62.644313130203514 
-174.41726450026744, 0.685893100500381, 22.35724327431762, 152.585320390411, 48.28600782466787, 62.64472378251292 
-175.3430325111864, 0.618367586835682, 22.357247072458563, 151.88684715275494, 48.252493488134, 62.64510116753689 
-176.26920785761172, 0.55677739162949, 22.357250193907447, 151.18850542593916, 48.221944033305675, 62.64544521977018 
-177.1957550799733, 0.5011411022180067, 22.357252732400656, 150.49028243829613, 48.194363411412745, 62.64575587966672 
-178.1226380139235, 0.45147553919893424, 22.357254772962765, 149.79216557609953, 48.16975518980349, 62.646033093602284 
-179.04981985903052, 0.4077957422734619, 22.357256391774055, 149.09414236713408, 48.148122551458016, 62.646276813839776 
-179.9772632486153, 0.37011495751203294, 22.357257656051956, 148.39620046434132, 48.129468294550406, 62.64648699849922 
179.0950696793864, 0.33844462607997045, 22.35725862394651, 147.6983276295319, 48.113794832061124, 62.646663611530066 
178.16721721065957, 0.312794374454945, 22.357259344449947, 147.00051171715558, 48.10110419144053, 62.646806622687976 
177.23921798197125, 0.293172006164118, 22.357259857320535, 146.30274065811986, 48.09139801432472, 62.64691600751498 
176.3111109079858, 0.27958349506456043, 22.357260193020828, 145.60500244364928, 48.084677556304456, 62.64699174732336 
175.38293510756856, 0.27203298018623334, 22.357260372670357, 144.90728510917555, 48.08094368674779, 62.64703382918329 
174.4547298297115, 0.27052276215229865, 22.35726040801285, 144.2095767182514, 48.080196888676944, 62.647042245914335 
173.52653437921848, 0.2750533011870801, 22.35726030139793, 143.5118653464788, 48.08243725869976, 62.647016996080595 
172.59838804228642, 0.2856232167173298, 22.357260045777565, 142.81413906544344, 48.08766450699609, 62.64695808398993 
171.67033001212152, 0.30222928856805753, 22.357259624716946, 142.11638592664724, 48.09587795735881, 62.6468655196966 
170.74239931472752, 0.3248664597494114, 22.35725901242002, 141.41859394543036, 48.10707654728972, 62.64673931900806 
169.8146347350033, 0.35352784082659555, 22.35725817376954, 140.72075108487425, 48.12125882814987, 62.646579503495424 
168.88707474328564, 0.38820471586028477, 22.35725706438166, 140.02284523967757, 48.13842296536378, 62.6463861005076 
167.9597574224712, 0.428886549900544, 22.357255630674814, 139.32486421999596, 48.15856673867725, 62.64615914318923 
167.0327203958486, 0.47556099801273094, 22.35725380995309, 138.62679573523764, 48.181687542467735, 62.64589867050254 
166.1060007557699, 0.5282139158096968, 22.357251530503667, 137.9286273778057, 48.2077823861065, 62.6456047272524 
165.17963499328565, 0.5868293714603363, 22.357248711708447, 137.2303466067781, 48.23684789437157, 62.645277364115366 
164.25365892886538, 0.6513896591404671, 22.357245264169535, 136.53194073151684, 48.26888030791005, 62.644916637672154 
163.32810764431932, 0.721875313888104, 22.357241089848532, 135.83339689519627, 48.30387548374863, 62.644522610443495 
162.40301541603358, 0.798265127821506, 22.357236082219448, 135.134702058242, 48.341828895850725, 62.64409535092951 
161.4784156496248, 0.8805361676747188, 22.357230126434878, 134.43584298166985, 48.382735635718376, 62.64363493365227 
160.554340816115, 0.9686637936019962, 22.357223099505486, 133.73680621031565, 48.42659041303731, 62.64314143920171 
159.6308223897217, 1.0626216791993366, 22.357214870492264, 133.03757805594464, 48.47338755636306, 62.64261495428458 
158.7078907873506, 1.1623818326883768, 22.35720530071158, 132.33814458023122, 48.52312101384582, 62.64205557177646 
157.78557530987402, 1.267914619205171, 22.357194243952534, 131.6384915775969, 48.57578435399208, 62.641463390776615 
156.86390408526833, 1.3791887841338513, 22.357181546706443, 130.9386045578961, 48.63137076646019, 62.64083851666567 
155.9429040136797, 1.496171477423016, 22.357167048408158, 130.23846872893736, 48.68987306288747, 62.640181061166 
155.02260071447785, 1.6188282788205155, 22.357150581688778, 129.53806897882873, 48.75128367774594, 62.639491142404545 
154.10301847535217, 1.7471232239606656, 22.357131972639618, 128.837389858134, 48.815594669223785, 62.63876888497819 
153.18418020349554, 1.881018831236385, 22.35711104108687, 128.13641556182742, 48.88279772012954, 62.63801442002116 
152.26610737891505, 2.0204761293874105, 22.357087600876753, 127.43512991103299, 48.9528841388154, 62.63722788527462 
151.34882000990163, 2.165454685734825, 22.35706146017068, 126.7335163345345, 49.02584486011669, 62.63640942515834 
150.43233659068179, 2.315912634991306, 22.35703242175011, 126.03155785004178, 49.10167044630347, 62.635559190843935 
149.51667406126958, 2.4718067085759885, 22.35700028333065, 125.32923704519774, 49.180351088040844, 62.63467734032984 
148.60184776952792, 2.633092264362589, 22.35696483788497, 124.62653605831056, 49.261876605353834, 62.63376403851776 
147.6878714354432, 2.799723316789275, 22.356925873974166, 123.92343655879473, 49.34623644859294, 62.63281945729028 
146.7747571176092, 2.971652567259055, 22.35688317608708, 123.21991972730352, 49.4334196993959, 62.631843775589616 
145.8625151819102, 3.1488314347598774, 22.356836524987155, 122.51596623553495, 49.523415071641445, 62.6308371794973 
144.9511542723876, 3.3312100866339707, 22.35678569806631, 121.81155622569325, 49.61621091239034, 62.629799862314556 
144.04068128426715, 3.518737469427151, 22.356730469705482, 121.10666928958547, 49.711795202808965, 62.62873202464328 
143.13110133911948, 3.711361339749438, 22.356670611641242, 120.4012844473337, 49.81015555907048, 62.6276338744671 
142.22241776212047, 3.9090282950797284, 22.356605893338067, 119.69538012568157, 49.91127923322853, 62.62650562723296 
141.3146320613736, 4.111683804448483, 22.356536082365743, 118.98893413587285, 50.01515311405806, 62.62534750593227 
140.40774390925085, 4.319272238933936, 22.356460944781386, 118.2819236510792, 50.12176372785781, 62.62415974118196 
139.5017511257058, 4.531736901908877, 22.35638024551571, 117.57432518335355, 50.23109723920881, 62.62294257130512 
138.59664966350678, 4.749020058976952, 22.356293748762766, 116.86611456008302, 50.343139451682895, 62.62169624241071 
137.6924335953368, 4.971062967539126, 22.356201218372938, 116.15726689991658, 50.45787580849533, 62.62042100847271 
136.7890951027012, 5.197805905933032, 22.356102418248472, 115.44775658813919, 50.57529139309499, 62.61911713140787 
135.88662446658304, 5.429188202090118, 22.355997112741054, 114.73755725146447, 50.695370929685794, 62.61778488115222 
134.98501005978332, 5.66514826165729, 22.355885067051013, 114.02664173221615, 50.818098783672525, 62.61642453573615 
134.0842383408806, 5.905623595532453, 22.35576604762747, 113.31498206186718, 50.943458962024174, 62.61503638135768 
133.18429384974397, 6.150550846765164, 22.355639822569046, 112.6025494339047, 51.071435113547345, 62.613620712453596 
132.28515920453071, 6.399865816776353, 22.355506162024476, 111.88931417598631, 51.20201052906266, 62.612177831768804 
131.38681510010082, 6.653503490853002, 22.355364838592703, 111.17524572135362, 51.335168141476046, 62.6107080504229 
130.48924030777843, 6.911398062876484, 22.355215627721872, 110.46031257946532, 51.47089052573714, 62.609211687974316 
129.5924116763909, 7.173482959245256, 22.355058308106692, 109.74448230581245, 51.6091598986765, 62.60768907248167 
128.69630413451677, 7.4396908619553805, 22.354892662083643, 109.02772147087522, 51.74995811871303, 62.60614054056194 
127.8008906938733, 7.70995373080437, 22.354718476023557, 108.30999562818046, 51.893266685422766, 62.60456643744574 
126.90614245377648, 7.984202824686529, 22.354535540720985, 107.59126928141582, 52.03906673895975, 62.60296711702861 
126.01202860660646, 8.26236872195028, 22.354343651779867, 106.8715058505557, 52.18733905931974, 62.60134294191921 
125.11851644421358, 8.54438133979007, 22.354142609994966, 106.15066763695205, 52.338064065436434, 62.59969428348327 
124.22557136520187, 8.830169952648168, 22.353932221728677, 105.42871578734011, 52.491221814100385, 62.598021521883716 
123.33315688302869, 9.119663209603548, 22.353712299282456, 104.70561025670897, 52.646791998689665, 62.596325046116384 
122.44123463486176, 9.41278915072753, 22.353482661262717, 103.98130976998253, 52.8047539477015, 62.59460525404134 
121.54976439113783, 9.70947522238795, 22.353243132940403, 103.25577178245611, 52.96508662307308, 62.592862552409684 
120.65870406576897, 10.009648291485844, 22.35299354660395, 102.52895243893008, 53.12776861827991, 62.59109735688527 
119.76800972694753, 10.31323465861053, 22.352733741905052, 101.80080653148094, 53.292778156199134, 62.589310092061694 
118.8776356085018, 10.620160070101315, 22.3524635661969, 101.07128745580636, 53.460093086724946, 62.58750119147388 
117.98753412176025, 10.930349729005783, 22.352182874864244, 100.34034716607921, 53.62969088412269, 62.58567109760438 
117.09765586788437, 11.243728304926593, 22.351891531645094, 99.60793612824273, 53.80154864410755, 62.58382026188422 
116.20794965063516, 11.560219942750853, 22.351589408943344, 98.87400327167539, 53.9756430806334, 62.581949144687705 
115.31836248954198, 11.879748270257465, 22.35127638813212, 98.13849593915288, 54.15195052237641, 62.580058215322104 
114.42883963344691, 12.202236404600264, 22.35095235984738, 97.40135983502962, 54.33044690889771, 62.57814795201028 
113.53932457440297, 12.527606957665778, 22.350617224271257, 96.6625389715615, 54.511107786468266, 62.57621884186815 
112.6497590619081, 12.855782040306888, 22.350270891404968, 95.92197561328612, 54.69390830353914, 62.57427138087518 
111.76008311746324, 13.186683265454535, 22.349913281330686, 95.17961021937589, 54.87882320583841, 62.572306073838725 
110.87023504944649, 13.520231750111995, 22.34954432446223, 94.43538138387429, 55.06582683107641, 62.57032343435177 
109.98015146830193, 13.856348116237111, 22.349163961784022, 93.6892257737236, 55.254893103239226, 62.568323984743834 
109.08976730204601, 14.194952490519947, 22.348772145078183, 92.94107806448852, 55.44599552644972, 62.56630825602531 
108.19901581210073, 14.535964503064607, 22.348368837139283, 92.19087087367627, 55.63910717837462, 62.56427678782463 
107.30782860946857, 14.8793032849854, 22.347954011976512, 91.43853469155167, 55.834200703154785, 62.56223012831863 
106.41613567126961, 15.224887464929346, 22.347527655003024, 90.68399780934054, 56.03124830383504, 62.56016883415553 
105.52386535766799, 15.572635164538008, 22.347089763212054, 89.92718624471304, 56.230221734268575, 62.55809347037101 
104.63094442922046, 15.92246399286376, 22.346640345339743, 89.16802366443335, 56.43109229046979, 62.55600461029677 
