# MEX_intpoint_lon [deg], MEX_intpoint_lat [deg], MEX_intpoint_angle [deg], TGO_intpoint_lon [deg], TGO_intpoint_lat [deg], TGO_intpoint_angle [deg] 
-103.69283361061444, 20.361407349434838, 22.157044597623575, -141.02957635289428, 58.80582831349119, 62.53291026536138 
-104.60612880187841, 20.00245494237727, 22.157610135944477, -141.81007896925217, 58.57563849674399, 62.53521073419664 
-105.51774428062396, 19.644454459624374, 22.15816590745661, -142.5871773992265, 58.347036617841304, 62.537505025062906 
-106.42776751778902, 19.287494378794623, 22.158711754532693, -143.36098511399896, 58.12005769539053, 62.53979244366768 
-107.33628477903574, 18.931662528267136, 22.159247531367743, -144.13161182743656, 57.89473614664217, 62.54207230282832 
-108.24338109385688, 18.577046101687298, 22.159773103998678, -144.89916363223892, 57.67110580552638, 62.544343922664844 
-109.14914022618812, 18.22373167185153, 22.160288350309493, -145.66374313062653, 57.44919993964067, 62.54660663078421 
-110.05364464640714, 17.871805203932986, 22.160793160022354, -146.4254495597819, 57.2290512662418, 62.54885976245653 
-110.95697550460976, 17.521352068011886, 22.161287434674357, -147.18437891225224, 57.010691967291436, 62.551102660782625 
-111.85921260505934, 17.172457050876655, 22.161771087580295, -147.94062405151638, 56.794153703602916, 62.55333467685353 
-112.7604343817139, 16.825204367063847, 22.1622440437813, -148.69427482291306, 56.57946762813401, 62.555555169901574 
-113.66071787474225, 16.479677669107186, 22.16270623997963, -149.44541816012153, 56.36666439846802, 62.55776350744302 
-114.56013870794708, 16.135960056967743, 22.163157624459576, -150.19413818738022, 56.15577418852361, 62.55995906541274 
-115.45877106702089, 15.79413408661912, 22.16359815699483, -150.94051631762272, 55.9468266995315, 62.56214122829017 
-116.35668767856606, 15.45428177776351, 22.16402780874225, -151.68463134670418, 55.73985117031439, 62.56430938921752 
-117.25395978981825, 15.116484620655852, 22.164446562122297, -152.42655954388533, 55.53487638690425, 62.56646295010946 
-118.15065714901759, 14.780823582015394, 22.164854410686395, -153.1663747387355, 55.33193069153011, 62.568601321754926 
-119.0468479863799, 14.447379110005281, 22.165251358971275, -153.90414840460988, 55.13104199100672, 62.57072392391068 
-119.94259899562464, 14.116231138262517, 22.165637422340634, -154.63994973884988, 54.93223776455423, 62.572830185387275 
-120.83797531602416, 13.787459088962272, 22.166012626814297, -155.37384573985173, 54.73554507107632, 62.57491954412664 
-121.733040514943, 13.46114187490192, 22.166377008885146, -156.10590128113944, 54.5409905559238, 62.576991447272334 
-122.62785657084308, 13.137357900591871, 22.166730615324024, -156.8361791825765, 54.34860045716876, 62.57904535123191 
-123.5224838567354, 12.816185062341761, 22.167073502973043, -157.5647402788427, 54.15840061141357, 62.581080721731745 
-124.41698112406496, 12.497700747331976, 22.167405738527385, -158.2916434852985, 53.97041645915749, 62.583097033864455 
-125.31140548702002, 12.181981831662355, 22.167727398306035, -159.01694586135423, 53.78467304974298, 62.58509377212897 
-126.20581240726302, 11.869104677371107, 22.16803856801174, -159.74070267145615, 53.60119504590232, 62.58707043046348 
-127.10025567908478, 11.559145128418782, 22.168339342480547, -160.4629674437975, 53.42000672792468, 62.58902651227118 
-127.9947874149885, 11.252178505633745, 22.168629825421167, -161.1837920268571, 53.241131997462396, 62.590961530439394 
-128.88945803171515, 10.94827960061712, 22.168910129144674, -161.90322664386483, 53.06459438099471, 62.59287500735176 
-129.7843162367259, 10.647522668606948, 22.16918037428474, -162.62131994528835, 52.89041703296624, 62.59476647489366 
-130.6794090151619, 10.349981420302903, 22.169440689508946, -163.3381190594314, 52.718622738616794, 62.596635474451865 
-131.5747816173054, 10.055729012654778, 22.16969121122144, -164.053669641231, 52.54923391651832, 62.59848155690731 
-132.47047754657154, 9.764838038619535, 22.169932083257443, -164.7680159193359, 52.38227262083412, 62.600304282622 
-133.3665385480614, 9.477380515893776, 22.170163456569867, -165.4812007415459, 52.217760543315045, 62.602103221420265 
-134.26300459771386, 9.193427874630135, 22.170385488908657, -166.1932656186881, 52.05571901504637, 62.603877952564076 
-135.1599138920937, 8.913050944148067, 22.17059834449317, -166.90425076700265, 51.89616900795892, 62.60562806472301 
-136.0573028388599, 8.636319938651464, 22.17080219367798, -167.61419514910762, 51.739131136117074, 62.60735315593897 
-136.95520604795843, 8.363304441967607, 22.17099721261274, -168.32313651360906, 51.58462565679623, 62.60905283358565 
-137.85365632358778, 8.094073391323745, 22.171183582896322, -169.03111143342042, 51.43267247136134, 62.61072671432339 
-138.75268465698886, 7.8286950601798395, 22.171361491225927, -169.7381553428519, 51.28329112595804, 62.61237442404908 
-139.65232022011034, 7.567237040138134, 22.1715311290414, -170.4443025735275, 51.1365008120273, 62.61399559784198 
-140.55259036020664, 7.309766221952175, 22.171692692165475, -171.14958638918606, 50.992320366654155, 62.61558987990506 
-141.45352059542319, 7.056348775660215, 22.17184638044016, -171.85403901941893, 50.8507682727608, 62.61715692350245 
-142.3551346114286, 6.807050129870047, 22.171992397359997, -172.55769169239522, 50.711862659153596, 62.618696390893064 
-143.25745425915238, 6.561934950224533, 22.172130949702478, -173.2605746666233, 50.575621300433795, 62.62020795326084 
-144.16049955368894, 6.321067117079236, 22.172262247156226, -173.96271726179526, 50.4420616167808, 62.62169129064152 
-145.06428867442824, 6.084509702425973, 22.17238650194744, -174.66414788875784, 50.31120067361701, 62.62314609184642 
-145.96883796647504, 5.852324946098093, 22.17250392846495, -175.36489407865338, 50.18305518116268, 62.62457205438337 
-146.87416194341714, 5.6245742312955676, 22.17261474288463, -176.06498251127107, 50.05764149388896, 62.62596888437504 
-147.78027329150373, 5.401318059470384, 22.172719162793424, -176.76443904264656, 49.93497560987718, 62.627336296474944 
-148.68718287529444, 5.182616024614479, 22.172817406813593, -177.46328873194804, 49.81507317009204, 62.62867401378117 
-149.5948997448369, 4.968526786995073, 22.172909694227716, -178.16155586768383, 49.697949457576165, 62.62998176774843 
-150.50343114443226, 4.759108046383917, 22.172996244604832, -178.8592639932652, 49.583619396573056, 62.63125929809834 
-151.41278252304267, 4.554416514829316, 22.17307727742831, -179.55643593195688, 49.47209755158572, 62.632506352728115 
-152.32295754639654, 4.354507889021672, 22.17315301172593, 179.7469061887532, 49.36339812637747, 62.63372268761852 
-153.2339581108417, 4.159436822305053, 22.1732236657026, 179.0507409133363, 49.25753496292138, 62.63490806674038 
-154.1457843589954, 3.969256896389415, 22.173289456376235, 178.35504743492837, 49.154521540305076, 62.636062261960646 
-155.05843469723737, 3.7840205928194663, 22.173350599217315, 177.65980557253172, 49.054370973596384, 62.63718505294794 
-155.97190581508752, 3.603779264258101, 22.173407307792516, 176.96499574868741, 48.957096012676274, 62.63827622707781 
-156.8861927065063, 3.428583105643632, 22.173459793413016, 176.27059896759286, 48.86270904104455, 62.63933557933788 
-157.80128869315297, 3.258481125281463, 22.173508264787742, 175.57659679364198, 48.77122207460384, 62.640362912233314 
-158.71718544963034, 3.0935211159321763, 22.173552927682202, 174.88297133036446, 48.68264676042713, 62.641358035692626 
-159.63387303074177, 2.9337496259588827, 22.173593984583313, 174.18970519974303, 48.596994375514406, 62.64232076697413 
-160.55133990078062, 2.7792119305978367, 22.173631634370533, 173.49678152188775, 48.514275825542654, 62.643250930573224 
-161.46957296486605, 2.629952003416937, 22.17366607199398, 172.80418389504766, 48.43450164361479, 62.64414835813066 
-162.38855760233494, 2.486012488027361, 22.17369748815967, 172.11189637594128, 48.357681989011596, 62.64501288834225 
-163.30827770219352, 2.347434670113869, 22.17372606902255, 171.41990346038696, 48.28382664595138, 62.645844366869696 
-164.22871570062583, 2.214258449849699, 22.17375199588764, 170.7281900642166, 48.21294502236154, 62.64664264625356 
-165.14985262055023, 2.0865223147618126, 22.173775444919524, 170.03674150445582, 48.14504614866622, 62.64740758582756 
-166.07166811320954, 1.96426331311204, 22.17379658686092, 169.34554348075469, 48.08013867659394, 62.648139051635226 
-166.99414050177256, 1.8475170278593431, 22.17381558676028, 168.65458205705372, 48.01823087800902, 62.64883691634866 
-167.9172468269202, 1.7363175512676647, 22.173832603709215, 167.96384364347074, 47.959330643770485, 62.649501059189646 
-168.8409628943806, 1.6306974602230089, 22.173847790589686, 167.27331497839452, 47.903445482621734, 62.65013136585341 
-169.76526332437268, 1.5306877923222715, 22.173861293831646, 166.58298311077186, 47.85058252011438, 62.65072772843495 
-170.69012160291103, 1.4363180227950982, 22.173873253181174, 165.89283538257482, 47.800748497569565, 62.65129004535841 
-171.6155101349166, 1.3476160423183845, 22.173883801479597, 165.20285941143635, 47.75394977107929, 62.65181822130915 
-172.5414002990739, 1.2646081357813008, 22.173893064453853, 164.51304307344174, 47.71019231055101, 62.65231216716951 
-173.46776250436696, 1.187318962056877, 22.173901160518238, 163.82337448606492, 47.66948169879785, 62.652771799957286 
-174.39456624822083, 1.11577153483371, 22.17390820058803, 163.133841991238, 47.63182313067713, 62.65319704276796 
-175.32178017617005, 1.0499872045591292, 22.17391428790508, 162.44443413854398, 47.59722141227929, 62.65358782472048 
-176.2493721429683, 0.9899856415425698, 22.173919517875575, 161.75513966852168, 47.56568096016966, 62.653944080906435 
-177.17730927504925, 0.9357848202648649, 22.173923977920357, 161.06594749607308, 47.537205800684816, 62.65426575234333 
-178.10555803424285, 0.8874010049363487, 22.173927747337814, 160.37684669396367, 47.51179956928552, 62.654552785931386 
-179.03408428264623, 0.8448487363434317, 22.173930897179638, 159.6878264764058, 47.48946550996782, 62.65480513441453 
-179.96285334854403, 0.8081408200199871, 22.17393349013959, 158.99887618271597, 47.47020647473397, 62.6550227563452 
179.10816990673095, 0.7772883157761462, 22.173935580455392, 158.30998526103772, 47.45402492312431, 62.65520561605346 
178.17902102111017, 0.7523005286139339, 22.17393721382388, 157.62114325212005, 47.44092292181146, 62.655353683620085 
177.24973586339132, 0.7331850010548593, 22.173938427329595, 156.932339773144, 47.430902144257814, 62.65546693485388 
176.320350564249, 0.7199475069011458, 22.173939249386823, 156.24356450158817, 47.423963870437106, 62.655545351273325 
175.39090144677579, 0.7125920464479593, 22.17393969969519, 155.55480715912503, 47.42010898662089, 62.655588920092505 
174.4614249566778, 0.7111208431602857, 22.173939789208926, 154.8660574955397, 47.41933798523035, 62.65559763421135 
173.53195759224926, 0.7155343418236367, 22.173939520119735, 154.17730527266306, 47.42165096475384, 62.65557149221005 
172.6025358342523, 0.7258312081739926, 22.173938885853364, 153.48854024831084, 47.42704762973042, 62.655510498348214 
171.67319607582868, 0.7420083300078207, 22.173937871079904, 152.79975216022095, 47.43552729079928, 62.65541466256777 
170.74397455256886, 0.7640608197692239, 22.173936451737674, 152.11093070998024, 47.44708886481518, 62.65528400050108 
169.81490727286482, 0.791982018606831, 22.173934595070882, 151.42206554693328, 47.46173087502927, 62.65511853348235 
168.88602994867068, 0.8257635018889541, 22.17393225968075, 150.73314625206416, 47.47945145133525, 62.65491828856426 
167.95737792679392, 0.8653950861616723, 22.17392939559021, 150.04416232184357, 47.500248330579836, 62.65468329853834 
167.0289861208378, 0.9108648375301139, 22.17392594432212, 149.35510315203248, 47.52411885693708, 62.65441360195968 
166.1008889439128, 0.9621590814396848, 22.173921838990637, 148.6659580214339, 47.551059982345485, 62.65410924317601 
165.17312024223236, 1.0192624138298076, 22.173917004406015, 147.97671607558394, 47.58106826700673, 62.653770272360546 
164.24571322970382, 1.082157713629303, 22.173911357192296, 147.28736631037341, 47.614139879944865, 62.65339674554931 
163.3187004236218, 1.1508261565587912, 22.17390480591804, 146.59789755559083, 47.6502705996245, 62.65298872468216 
162.3921135815676, 1.2252472302021424, 22.17389725123971, 145.9082984583773, 47.68945581462631, 62.6525462776477 
161.46598363961212, 1.3053987503056752, 22.173888586057725, 145.218557466584, 47.73169052437831, 62.6520694783322 
160.54034065191584, 1.3912568782608552, 22.173878695684717, 144.52866281202236, 47.77696933994068, 62.6515584066719 
159.61521373181358, 1.4827961397230436, 22.173867458026034, 143.83860249359637, 47.82528648484238, 62.651013148709445 
158.6906309944664, 1.5799894443164588, 22.173854743772058, 143.1483642603069, 47.87663579596703, 62.65043379665298 
157.766619501156, 1.6828081063727225, 22.173840416602143, 142.45793559411695, 47.93101072448588, 62.64982044893953 
156.84320520529292, 1.7912218666482025, 22.1738243334, 141.7673036926668, 47.98840433683517, 62.649173210300866 
155.92041290020157, 1.9051989149631967, 22.17380634448, 141.0764554518267, 48.04880931573511, 62.64849219183285 
154.99826616873972, 2.0247059137041554, 22.17378629382442, 140.38537744807596, 48.11221796124777, 62.647777511067645 
154.0767873348034, 2.1497080221284475, 22.173764019331, 139.6940559206946, 48.17862219187072, 62.64702929204857 
153.1559974167618, 2.2801689214098118, 22.173739353070705, 139.00247675375553, 48.24801354566306, 62.64624766540776 
152.23591608285938, 2.416050840361291, 22.173712121555276, 138.3106254579027, 48.32038318140083, 62.64543276844638 
151.316561608617, 2.5573145817716525, 22.173682146014144, 137.6184871519013, 48.39572187975787, 62.644584745216676 
150.39795083625646, 2.703919549290365, 22.17364924268049, 136.92604654394523, 48.47402004450869, 62.64370374660671 
149.48009913616625, 2.8558237747957333, 22.173613223085958, 136.23328791270603, 48.55526770374935, 62.6427899304267 
148.56302037042101, 3.0129839461805683, 22.173573894363596, 135.54019508810703, 48.63945451113238, 62.64184346149717 
147.6467268583599, 3.1753554354893816, 22.17353105955884, 134.8467514318059, 48.72656974711152, 62.64086451173867 
146.73122934422344, 3.342892327341521, 22.173484517947806, 134.15293981736832, 48.81660232019187, 62.63985326026278 
145.81653696684208, 3.5155474475747837, 22.173434065362777, 133.45874261011295, 48.909540768180975, 62.6388098934645 
144.90265723136577, 3.693272392044384, 22.173379494524237, 132.76414164661006, 49.0053732594362, 62.63773460511518 
143.98959598301536, 3.8760175555132452, 22.173320595379145, 132.06911821381243, 49.10408759410315, 62.63662759645665 
143.07735738283492, 4.0637321605698755, 22.17325715544491, 131.37365302779762, 49.20567120534068, 62.63548907629547 
142.1659438854161, 4.25636428651161, 22.173188960158694, 130.67772621209983, 49.31011116052666, 62.63431926109774 
141.25535621856392, 4.45386089813176, 22.173115793231464, 129.981317275608, 49.41739416243943, 62.633118375083804 
140.34559336486615, 4.6561678743508095, 22.173037437006528, 129.28440509000592, 49.52750655040913, 62.631886650322976 
139.43665254512769, 4.86323003663295, 22.17295367282182, 128.5869678667291, 49.64043430143331, 62.63062432682784 
138.52852920362437, 5.074991177131142, 22.17286428137567, 127.88898313341234, 49.75616303125056, 62.62933165264772 
137.62121699513034, 5.291394086505251, 22.172769043095492, 127.19042770979928, 49.874677995366184, 62.62800888396174 
136.71470777366827, 5.512380581359691, 22.172667738508835, 126.49127768308662, 49.99596409002328, 62.62665628517042 
135.80899158292956, 5.737891531249069, 22.172560148616473, 125.79150838267087, 50.120005853112914, 62.62527412898628 
134.90405664831027, 5.967866885201791, 22.17244605526686, 125.09109435426771, 50.24678746501612, 62.6238626965226 
133.9998893705045, 6.202245697714204, 22.17232524153161, 124.39000933336924, 50.376292749371004, 62.622422277380636 
133.09647432059887, 6.440966154169312, 22.17219749208137, 123.68822621800575, 50.50850517375744, 62.620953169734804 
132.1937942366063, 6.683965595636783, 22.1720625935617, 122.98571704077496, 50.643407850291936, 62.61945568041545 
131.29183002137995, 6.931180543012595, 22.171920334968412, 122.28245294010105, 50.7809835361246, 62.61793012498934 
130.39056074184614, 7.182546720459304, 22.171770508021833, 121.57840413068372, 50.92121463383042, 62.616376827837314 
129.4899636294945, 7.437999078109758, 22.171612907539618, 120.87353987309606, 51.06408319168625, 62.61479612222899 
128.59001408206473, 7.697471813999623, 22.171447331807446, 120.1678284424871, 51.209570903824975, 62.6131883503943 
127.69068566636909, 7.960898395195986, 22.171273582947304, 119.46123709634455, 51.35765911025775, 62.61155386359166 
126.79195012219117, 8.22821157809173, 22.17109146728266, 118.75373204126947, 51.50832879675519, 62.60989302217243 
125.89377736720128, 8.499343427837628, 22.17090079570027, 118.04527839871328, 51.66156059457771, 62.608206195641365 
124.99613550283198, 8.774225336885939, 22.170701384007938, 117.33584016962587, 51.817334780045144, 62.606493762713384 
124.09899082105696, 9.052788042622046, 22.170493053287824, 116.62538019795899, 51.97563127393518, 62.60475611136552 
123.20230781202004, 9.33496164406215, 22.170275630244948, 115.91386013296987, 52.13642964069986, 62.602993638884584 
122.30604917246201, 9.620675617597762, 22.17004894755018, 115.20124039026373, 52.29970908748918, 62.601206751910155 
121.41017581489608, 9.909858831769297, 22.1698128441775, 114.4874801115148, 52.46544846296971, 62.599395866472314 
120.51464687748505, 10.202439561053586, 22.169567165734936, 113.77253712279929, 52.63362625592674, 62.59756140802453 
119.61941973457647, 10.498345498651652, 22.169311764788795, 113.05636789147346, 52.804220593636806, 62.59570381147085 
118.72445000785494, 10.797503768265534, 22.169046501180713, 112.338927481525, 52.977209239997904, 62.59382352118783 
117.82969157807378, 11.09984093485448, 22.16877124233712, 111.6201695073238, 53.15256959340358, 62.59192099104042 
116.9350965973326, 11.40528301436284, 22.16848586357076, 110.90004608569446, 53.33027868434667, 62.589996684391984 
116.0406155018699, 11.713755482414053, 22.168190248373726, 110.17850778622889, 53.5103131727379, 62.58805107410833 
115.14619702534493, 12.025183281966415, 22.16788428870174, 109.45550357975515, 53.69264934492371, 62.58608464255511 
114.25178821258592, 12.339490829928657, 22.16756788524923, 108.73098078487266, 53.877263110387325, 62.58409788158899 
113.3573344337872, 12.656602022734543, 22.16724094771484, 108.00488501246245, 54.06412999811591, 62.582091292542074 
112.46277939914111, 12.976440240877855, 22.166903395057044, 107.27716010807478, 54.25322515261624, 62.580065386199514 
111.56806517389607, 13.298928352410323, 22.166555155739413, 106.54774809209397, 54.4445233295603, 62.57802068277005 
110.67313219383637, 13.623988715407126, 22.166196167965335, 105.81658909757425, 54.63799889104132, 62.57595771184965 
109.77791928118425, 13.951543179405844, 22.165826379901777, 105.08362130563751, 54.833625800420045, 62.57387701237778 
108.88236366093052, 14.281513085826361, 22.165445749891738, 104.34878087831763, 55.03137761673966, 62.57177913258615 
107.98640097760372, 14.613819267381153, 22.165054246655238, 103.61200188873175, 55.2312274886872, 62.56966462994035 
107.08996531249544, 14.948382046486202, 22.164651849478382, 102.87321624845427, 55.433148148077755, 62.56753407107335 
106.1929892013623, 15.2851212326852, 22.16423854839038, 102.1323536319628, 55.63711190283686, 62.56538803171172 
105.29540365263352, 15.623956119100429, 22.163814344328156, 101.38934139802163, 55.84309062945494, 62.56322709659381 
104.39713816615614, 15.964805477925946, 22.16337924928835, 100.64410450786086, 56.051055764886854, 62.56105185938002 
