# MEX_intpoint_lon [deg], MEX_intpoint_lat [deg], MEX_intpoint_angle [deg], TGO_intpoint_lon [deg], TGO_intpoint_lat [deg], TGO_intpoint_angle [deg] 
-104.11576349816924, 20.461590628126352, 22.403227942064056, -154.30581924149652, 59.13487790393721, 62.5285372761313 
-105.02171503153677, 20.089607159510237, 22.403823418020785, -155.1044282101168, 58.914280869085395, 62.53072778231119 
-105.92596978931726, 19.718646012754753, 22.40440829644649, -155.89947688242736, 58.69516369853624, 62.532912689185835 
-106.82862066298947, 19.348797235096104, 22.40498241185332, -156.69107878416662, 58.477561881588, 62.53509133508531 
-107.72975918016209, 18.98015020778481, 22.40554561158324, -157.47934386172093, 58.26151027877028, 62.53726306476509 
-108.62947547731308, 18.612793663613857, 22.40609775582759, -158.26437860339811, 58.047043140214754, 62.53942722959093 
-109.52785827393777, 18.24681570369176, 22.40663871763117, -159.04628615639078, 57.83419412302381, 62.54158318771597 
-110.42499484797638, 17.882303813423817, 22.407168382880897, -159.82516643955762, 57.6229963076839, 62.54373030425061 
-111.32097101240086, 17.519344877666914, 22.407686650278965, -160.60111625215166, 57.41348221356832, 62.545867951424725 
-112.2158710928489, 17.158025195025466, 22.408193431300848, -161.37422937862505, 57.205683813572165, 62.547995508742396 
-113.10977790620251, 16.798430491258056, 22.408688650137943, -162.1445966896395, 56.999632547919994, 62.55011236312907 
-114.00277274001547, 16.440645931766543, 22.409172243625164, -162.91230623941092, 56.795359337185, 62.55221790907131 
-114.89493533270289, 16.08475613314094, 22.409644161153615, -163.67744335951457, 56.592894594556675, 62.55431154874876 
-115.78634385441391, 15.730845173735306, 22.41010436456832, -164.44009074927735, 56.392268237391995, 62.55639269215901 
-116.67707488851559, 15.378996603251691, 22.41055282805145, -165.2003285628785, 56.19350969808402, 62.55846075723483 
-117.56720341362421, 15.02929345131051, 22.410989537990993, -165.95823449328137, 55.9966479342795, 62.56051516995386 
-118.45680278612684, 14.681818234987757, 22.41141449283514, -166.71388385311306, 55.80171143847637, 62.5625553644412 
-119.34594472314392, 14.336652965300468, 22.411827702932722, -167.46734965260808, 55.60872824702997, 62.564580783064685 
-120.23469928588895, 13.993879152623903, 22.412229190359803, -168.21870267472818, 55.4177259485959, 62.56659087652265 
-121.1231348633906, 13.653577811024979, 22.41261898873267, -168.96801154756838, 55.22873169203587, 62.56858510392504 
-122.0113181565458, 13.315829461498243, 22.412997143007644, -169.71534281415467, 55.041772193811894, 62.57056293286688 
-122.8993141624821, 12.980714134091896, 22.413363709267784, -170.46076099973783, 54.856873744892894, 62.57252383949525 
-123.78718615921073, 12.648311368913205, 22.41371875449702, -171.20432867668265, 54.67406221719677, 62.57446730856916 
-124.67499569056046, 12.318700216003643, 22.414062356341837, -171.94610652704975, 54.49336306958991, 62.57639283351261 
-125.56280255138599, 11.991959234076056, 22.41439460286088, -172.68615340296418, 54.31480135346513, 62.57829991646119 
-126.45066477305133, 11.668166488107385, 22.41471559226298, -173.4245263848609, 54.13840171791824, 62.58018806830176 
-127.33863860919475, 11.347399545782059, 22.41502543263375, -174.16128083769536, 53.96418841454232, 62.58205680870624 
-128.2267785217852, 11.029735472782935, 22.415324241651238, -174.89647046520318, 53.79218530185805, 62.583905666158586 
-129.1151371674876, 10.71525082692793, 22.415612146291025, -175.6301473622913, 53.62241584939799, 62.5857341779759 
-130.00376538435734, 10.404021651152672, 22.415889282521142, -176.362362065638, 53.45490314146118, 62.58754189032357 
-130.89271217889083, 10.096123465340499, 22.416155794987194, -177.0931636025793, 53.28966988055464, 62.589328358224286 
-131.78202471346182, 9.791631257003733, 22.416411836688223, -177.822599538353, 53.126738390536936, 62.59109314556164 
-132.6717482941794, 9.49061947082115, 22.416657568643576, -178.5507160217718, 52.96613061947879, 62.592835825077906 
-133.56192635920624, 9.193161997039056, 22.416893159551382, -179.27755782939278, 52.80786814225492, 62.59455597836674 
-134.45260046758074, 8.899332158745008, 22.41711878543901, 179.99683159175189, 52.65197216288081, 62.59625319586032 
-135.34381028858976, 8.609202698025149, 22.417334629306, 179.27241008280015, 52.49846351660748, 62.59792707681175 
-136.23559359174328, 8.322845761018376, 22.417540880759955, 178.54913673302133, 52.34736267178682, 62.59957722927243 
-137.12798623740377, 8.040332881882552, 22.417737735645797, 177.8269718410352, 52.19868973151978, 62.6012032700648 
-138.0210221681283, 7.761734965690055, 22.417925395669055, 177.10587687723412, 52.05246443509891, 62.602804824750514 
-138.9147334007834, 7.487122270272167, 22.418104068013463, 176.38581444735388, 51.90870615925655, 62.604381527594526 
-139.80915001949396, 7.216564387034341, 22.418273964953574, 175.66674825714284, 51.76743391922943, 62.60593302152475 
-140.70430016949263, 6.950130220766095, 22.418435303462754, 174.94864307807964, 51.62866636965009, 62.60745895808804 
-141.60021005193528, 6.687887968472316, 22.41858830481721, 174.23146471409288, 51.492421805275264, 62.60895899740248 
-142.49690391975162, 6.429905097254628, 22.418733194196392, 173.51517996923644, 51.35871816156073, 62.610432808105905 
-143.39440407460089, 6.1762483212740555, 22.418870200280537, 172.79975661627796, 51.22757301509201, 62.61188006730129 
-144.29273086500405, 5.926983577828705, 22.41899955484567, 172.0851633661581, 51.09900358388007, 62.613300460499225 
-145.1919026857235, 5.682176002582601, 22.4191214923567, 171.37136983828066, 50.97302672753039, 62.61469368155701 
-146.09193597846334, 5.441889903984227, 22.419236249559194, 170.65834653159527, 50.849658947294174, 62.616059432615444 
-146.9928452339623, 5.206188736915821, 22.419344065070213, 169.94606479643556, 50.728916386009494, 62.61739742403313 
-147.89464299555095, 4.97513507561704, 22.419445178968907, 169.2344968070778, 50.6108148279404, 62.618707374318234 
-148.79733986424523, 4.7487905859287896, 22.41953983238733, 168.5236155349853, 50.495369698521415, 62.61998901005842 
-149.70094450544582, 4.527215996905774, 22.419628267102052, 167.8133947227075, 50.38259606401482, 62.62124206584892 
-150.60546365731287, 4.310471071848363, 22.419710725127057, 167.1038088584006, 50.27250863108783, 62.62246628421886 
-151.51090214088222, 4.098614578806947, 22.419787448308494, 166.3948331509419, 50.16512174631639, 62.62366141555621 
-152.4172628719889, 3.891704260614062, 22.419858677921848, 165.68644350560726, 50.06044939562221, 62.624827218031605 
-153.32454687505862, 3.689796804501867, 22.41992465427202, 164.9786165002858, 49.958505203649594, 62.625963457520896 
-154.23275329882765, 3.4929478113645285, 22.419985616296795, 164.27132936220428, 49.85930243308802, 62.62706990752732 
-155.14187943404553, 3.3012117647272117, 22.420041801174392, 163.56455994513664, 49.7628539839465, 62.6281463491026 
-156.05192073321325, 3.1146419994851273, 22.420093443935425, 162.85828670707386, 49.66917239278567, 62.629192570768026 
-156.9628708324033, 2.933290670477997, 22.42014077707983, 162.15248868833143, 49.57826983191285, 62.63020836843514 
-157.87472157520577, 2.7572087209667853, 22.42018403019946, 161.447145490072, 49.49015810854584, 62.63119354532649 
-158.78746303883725, 2.5864458510810824, 22.420223429606484, 160.7422372532215, 49.40484866395019, 62.63214791189663 
-159.7010835624457, 2.42105048630687, 22.42025919796842, 160.03774463775866, 49.32235257255555, 62.63307128575342 
-160.61556977763826, 2.2610697460854188, 22.42029155395011, 159.3336488023579, 49.24268054105524, 62.63396349158001 
-161.5309066412524, 2.106549412595163, 22.420320711863152, 158.62993138436713, 49.16584290749433, 62.6348243610575 
-162.44707747038547, 1.957533899789043, 22.42034688132323, 157.9265744801021, 49.09184964035032, 62.635653732788754 
-163.3640639796906, 1.814066222760302, 22.420370266915814, 157.22356062543972, 49.020710337610865, 62.63645145222303 
-164.2818463209404, 1.6761879675101614, 22.42039106787074, 156.5208727766942, 48.952434225852656, 62.637217371582295 
-165.2004031248518, 1.5439392611908402, 22.420409477745967, 155.81849429175946, 48.88703015932556, 62.63795134978865 
-166.11971154516044, 1.4173587428971632, 22.42042568412098, 155.11640891150284, 48.82450661904555, 62.63865325239377 
-167.0397473049233, 1.296483535079679, 22.42043986830034, 154.41460074139493, 48.76487171190054, 62.63932295150987 
-167.960484745022, 1.1813492156515546, 22.42045220502764, 153.71305423336153, 48.70813316977195, 62.639960325742706 
-168.88189687483117, 1.0719897908606308, 22.42046286221034, 153.01175416784417, 48.65429834867612, 62.64056526012687 
-169.80395542500963, 0.968437668996792, 22.420472000655753, 152.31068563605547, 48.60337422792804, 62.641137646063044 
-170.7266309023628, 0.8707236350035213, 22.42047977381864, 151.60983402241726, 48.55536740933087, 62.641677381257935 
-171.6498926467192, 0.7788768260606442, 22.420486327560706, 150.9091849871688, 48.5102841163938, 62.64218436966641 
-172.5737088897544, 0.6929247082036094, 22.420491799922242, 150.20872444913346, 48.46813019358123, 62.64265852143675 
-173.49804681569054, 0.6128930540421594, 22.42049632090637, 149.50843856863236, 48.428911105595574, 62.64309975285832 
-174.42287262379028, 0.5388059216390334, 22.420500012275994, 148.8083137305337, 48.39263193669615, 62.64350798631209 
-175.34815159255865, 0.4706856346065444, 22.420502987363925, 148.1083365274276, 48.35929739005638, 62.6438831502245 
-176.273848145559, 0.4085527634760364, 22.420505350896228, 147.40849374291545, 48.328911787161445, 62.644225179024055 
-177.1999259187422, 0.3524261083919475, 22.420507198829224, 146.70877233500408, 48.30147906724819, 62.64453401310143 
-178.1263478291836, 0.30232268317898575, 22.42050861820018, 146.00915941959474, 48.27700278678901, 62.64480959877251 
-179.05307614511466, 0.2582577008271923, 22.420509686992038, 145.3096422540573, 48.25548611902152, 62.64505188824509 
-179.9800725571329, 0.22024456043607418, 22.420510474012282, 144.6102082208805, 48.23693185352522, 62.6452608395889 
179.09270174953286, 0.18829483565483482, 22.420511038786092, 143.91084481138876, 48.221342395846634, 62.645436416709 
178.16528602182834, 0.16241826465175818, 22.420511431463954, 143.2115396095169, 48.208719767173804, 62.64557858932286 
177.23771986488094, 0.1426227416415366, 22.42051169274395, 142.5122802756338, 48.1990656040615, 62.64568733294099 
176.31004316734303, 0.12891430999484413, 22.420511853808566, 141.81305453040616, 48.192381158207546, 62.64576262885122 
175.3822960262067, 0.12129715695007123, 22.42051193627641, 141.1138501386942, 48.18866729628122, 62.64580446410669 
174.45451867123015, 0.11977360994243771, 22.42051195216867, 140.41465489347001, 48.18792449980416, 62.6458128315174 
173.52675138911593, 0.12434413456121698, 22.420511903890525, 139.71545659975126, 48.19015286508401, 62.64578772964557 
172.59903444758203, 0.13500733414084704, 22.420511784227394, 139.01624305854054, 48.195352103201145, 62.64572916280472 
171.67140801946923, 0.1517599509872209, 22.420511576356123, 138.317002050763, 48.203521540048534, 62.64563714106248 
170.74391210702538, 0.17459686923556061, 22.420511253871023, 137.61772132119359, 48.214660116424454, 62.64551168024713 
169.81658646650874, 0.20351111933159907, 22.420510780824888, 136.91838856236492, 48.22876638817788, 62.64535280195774 
168.8894705332497, 0.23849388412313471, 22.420510111784584, 136.21899139844817, 48.24583852640623, 62.64516053357814 
167.96260334730894, 0.2795345065443417, 22.42050919190165, 135.51951736909783, 48.26587431770472, 62.644934908294346 
167.03602347986757, 0.32662049887075256, 22.420507956997323, 134.8199539132521, 48.288871164466514, 62.64467596511593 
166.10976896048115, 0.37973755351828986, 22.42050633366211, 134.1202883528796, 48.31482608523317, 62.64438374890061 
165.18387720532675, 0.43886955535547806, 22.420504239369905, 133.4205078766642, 48.34373571509377, 62.64405831038252 
164.25838494656693, 0.5039985954937577, 22.4205015826061, 132.7205995236182, 48.37559630613204, 62.64369970620408 
163.33332816295137, 0.5751049865167223, 22.420498263009982, 132.02055016661532, 48.41040372791966, 62.643307998950796 
162.4087420117698, 0.6521672791053373, 22.420494171530883, 131.32034649583332, 48.448153468054635, 62.64288325719007 
161.48466076226674, 0.7351622800124447, 22.420489190598037, 130.61997500209722, 48.488840632742715, 62.642425555512546 
160.56111773062042, 0.8240650713364424, 22.420483194303852, 129.91942196011235, 48.53245994742027, 62.641934974577055 
159.6381452165836, 0.9188490310406824, 22.420476048600456, 129.218673411578, 48.57900575741644, 62.6414116011585 
158.71577444187616, 1.0194858546621968, 22.420467611509086, 128.5177151481702, 48.62847202865263, 62.64085552819855 
157.79403549041413, 1.1259455781504526, 22.42045773334219, 127.81653269438334, 48.68085234837679, 62.640266854859405 
156.87295725045044, 1.2381966017743604, 22.42044625693791, 127.11511129021899, 48.736139925930246, 62.639645686579904 
155.952567358698, 1.3562057150333984, 22.420433017906586, 126.41343587371053, 48.79432759354437, 62.63899213513486 
155.03289214649598, 1.4799381225066481, 22.42041784488899, 125.7114910632716, 48.855407807164255, 62.638306318696095 
154.1139565880743, 1.6093574705717693, 22.420400559825953, 125.0092611398556, 48.919372647296605, 62.63758836189631 
153.1957842509628, 1.7444258749244, 22.420380978239038, 124.3067300289135, 48.986213819878635, 62.63683839589519 
152.27839724858418, 1.8851039488271044, 22.42035890952182, 123.60388128213667, 49.05592265716474, 62.636056558446995 
151.3618161950628, 2.031350832016117, 22.420334157241466, 122.90069805897028, 49.12849011862764, 62.635242993970806 
150.4460601622729, 2.183124220193142, 22.42030651945022, 122.19716310788338, 49.20390679187027, 62.63439785362183 
149.53114663914295, 2.3403803950292135, 22.420275789006237, 121.49325874738011, 49.28216289354474, 62.633521295364694 
148.6170914932257, 2.5030742546071356, 22.420241753903582, 120.78896684673637, 49.363248270274575, 62.63261348404795 
147.70390893453617, 2.6711593442290433, 22.420204197610673, 120.08426880644596, 49.447152399576034, 62.63167459147988 
146.79161148165267, 2.8445878875159076, 22.420162899417058, 119.37914553835876, 49.533864390774234, 62.63070479650527 
145.88020993006924, 3.0233108177261974, 22.420117634787673, 118.6735774454933, 49.62337298590999, 62.62970428508307 
144.96971332278284, 3.2072778092214347, 22.42006817572447, 117.96754440150556, 49.71566656063235, 62.62867325036493 
144.0601289230897, 3.3964373090074136, 22.420014291134734, 117.26102572979424, 49.81073312507248, 62.627611892773864 
143.15146218956258, 3.5907365682807733, 22.419955747205638, 116.55400018222272, 49.90856032469369, 62.626520420083544 
142.24371675317255, 3.7901216739118766, 22.419892307784565, 115.84644591743678, 50.00913544111273, 62.62539904749759 
141.33689439651556, 3.9945375797963, 22.41982373476472, 115.13834047875632, 50.11244539288688, 62.624247997728666 
140.43099503509822, 4.203928138008882, 22.41974978847543, 114.42966077161775, 50.218476736261444, 62.623067501077394 
139.52601670063336, 4.418236129695834, 22.419670228076722, 113.72038304054439, 50.327215665871954, 62.621857795510806 
138.6219555262913, 4.637403295642418, 22.41958481195759, 113.01048284561887, 50.43864801539534, 62.620619126740046 
137.71880573385002, 4.861370366455476, 22.419493298137446, 112.29993503843279, 50.552759258143666, 62.61935174829708 
136.81655962268326, 5.090077092302198, 22.419395444670233, 111.58871373748613, 50.669534507594584, 62.61805592161041 
135.9152075605232, 5.3234622721488485, 22.41929101005067, 110.87679230300833, 50.788958517851675, 62.61673191607954 
135.0147379759321, 5.561463782444998, 22.41917975362202, 110.16414331117198, 50.911015684028136, 62.61538000914761 
134.1151373524142, 5.804018605201579, 22.419061435985018, 109.45073852766853, 51.03569004254669, 62.61400048637264 
133.21639022409968, 6.051062855412974, 22.418935819407174, 108.73654888061407, 51.162965271348796, 62.61259364149652 
132.31847917292802, 6.302531807776193, 22.418802668232146, 108.02154443275187, 51.29282469000544, 62.611159776512125 
131.421384827261, 6.558359922662182, 22.41866174928851, 107.30569435291753, 51.42525125972198, 62.60969920172781 
130.5250858618512, 6.8184808712971705, 22.41851283229739, 106.58896688672992, 51.56022758322904, 62.60821223582933 
129.62955899909548, 7.0828275601140245, 22.418355690278464, 105.87132932647094, 51.69773590455115, 62.606699205939265 
128.73477901149985, 7.3513321542364976, 22.418190099953737, 105.1527479801143, 51.837758108644714, 62.60516044767303 
127.84071872528502, 7.623926100061216, 22.418015842148712, 104.43318813946284, 51.9802757208963, 62.60359630519199 
126.94734902506218, 7.90054014690511, 22.417832702190154, 103.71261404735179, 52.125269906472276, 62.602007131252975 
126.05463885950897, 8.181104367688322, 22.417640470300206, 102.99098886387287, 52.27272146951017, 62.60039328725426 
125.16255524797862, 8.465548178624681, 22.417438941986113, 102.26827463157397, 52.4226108521418, 62.598755143277884 
124.27106328797585, 8.753800357894859, 22.417227918425187, 101.54443223958538, 52.574918133338386, 62.59709307812743 
123.38012616343647, 9.045789063278873, 22.417007206844435, 100.81942138662285, 52.72962302756634, 62.595407479362315 
122.48970515374839, 9.341441848727612, 22.41677662089435, 100.09320054281488, 52.88670488324359, 62.593698743327224 
121.599759643457, 9.640685679854608, 22.416535981016406, 99.36572691030018, 53.046142680984076, 62.59196727517691 
120.71024713259779, 9.943446948332104, 22.41628511480366, 98.63695638253796, 53.20791503161938, 62.59021348889661 
119.8211232476051, 10.249651485176974, 22.416023857354176, 97.90684350227319, 53.3720001739845, 62.58843780731709 
118.93234175274755, 10.559224572914646, 22.415752051616582, 97.17534141809413, 53.538375972455256, 62.58664066212479 
118.04385456204508, 10.872090956610823, 22.415469548727476, 96.44240183951972, 53.7070199142238, 62.58482249386663 
117.15561175162651, 11.188174853762861, 22.41517620834008, 95.70797499054925, 53.87790910629828, 62.582983751949435 
116.26756157249, 11.50739996304474, 22.414871898943836, 94.97200956160623, 54.05102027221233, 62.58112489463343 
115.37965046363435, 11.82968947190098, 22.41455649817442, 94.23445265980465, 54.22632974842883, 62.579246389020334 
114.49182306553185, 12.154966062987205, 22.414229893113788, 93.49524975746269, 54.4038134804227, 62.5773487110352 
113.60402223391988, 12.48315191945616, 22.413891980579855, 92.75434463878769, 54.58344701842561, 62.57543234540247 
112.71618905389185, 12.814168729090328, 22.4135426674054, 92.0116793446511, 54.76520551281599, 62.573497785615466 
111.82826285427429, 13.147937687283274, 22.413181870705845, 91.26719411537145, 54.949063709135935, 62.57154553389982 
110.94018122228108, 13.484379498874084, 22.412809518135415, 90.52082733141826, 55.13499594271641, 62.569576101170206 
110.05188001844222, 13.823414378840257, 22.412425548131615, 89.77251545194846, 55.322976132891114, 62.56759000698071 
109.16329339180928, 14.164962051856357, 22.412029910147275, 89.02219295108289, 55.512977776778335, 62.56558777946814 
108.27435379544586, 14.508941750727082, 22.411622564870246, 88.26979225182679, 55.704973942609485, 62.56356995528881 
107.38499200221753, 14.855272213704705, 22.41120348443016, 87.5152436575372, 55.898937262581576, 62.56153707954824 
106.49513712090058, 15.203871680702854, 22.410772652592048, 86.75847528083376, 56.09483992521033, 62.55948970572389 
105.60471661263743, 15.554657888419289, 22.41033006493655, 85.99941296984963, 56.292653667159065, 62.55742839558077 
104.71365630777018, 15.90754806438265, 22.4098757290265, 85.23798023171337, 56.492349764517485, 62.55535371907981 
