# MEX_intpoint_lon [deg], MEX_intpoint_lat [deg], MEX_intpoint_angle [deg], TGO_intpoint_lon [deg], TGO_intpoint_lat [deg], TGO_intpoint_angle [deg] 
-104.6748804496466, 20.589343293937432, 22.74127608373773, -174.66892395892722, 58.94957028031346, 62.53320140913746 
-105.57041833839187, 20.199934048874567, 22.741912853300885, -175.45713148402538, 58.7234297107293, 62.53545534894874 
-106.46424733876259, 19.811645339054706, 22.7425378433703, -176.24186502225854, 58.498831445734304, 62.537703360617684 
-107.35646759692285, 19.424569034234594, 22.743150877669347, -177.023238225099, 58.27581071305672, 62.539944763645366 
-108.2471776712848, 19.038796322207798, 22.743751794184515, -177.80136105512173, 58.05440212657052, 62.54217888434714 
-109.13647451137706, 18.654417730509486, 22.74434044518495, -178.57633991614003, 57.83463970452861, 62.544405056042 
-110.02445343791365, 18.27152314717089, 22.744916697224742, -179.34827777836054, 57.61655688676362, 62.54662261923395 
-110.91120812392188, 17.890201840490064, 22.74548043112805, 179.88272570126605, 57.40018655090697, 62.54883092178547 
-111.79683057679843, 17.510542477787737, 22.746031541957095, 179.1165740633234, 57.18556102767389, 62.55102931908294 
-112.68141112117273, 17.132633143119197, 22.746569938963173, 178.35317393466664, 56.97271211525991, 62.553217174194046 
-113.56503838246759, 16.756561353914694, 22.747095545520764, 177.5924349214491, 56.76167109289201, 62.55539385801753 
-114.44779927105539, 16.382414076523126, 22.747608299044835, 176.83426950627404, 56.55246873357565, 62.5575587494243 
-115.32977896691841, 16.01027774063506, 22.748108150891447, 176.07859294931146, 56.34513531607649, 62.559711235391404 
-116.21106090473086, 15.640238252562774, 22.74859506624205, 175.3253231932223, 56.139700636173856, 62.561850711127306 
-117.09172675928771, 15.272381007356786, 22.74906902397135, 174.57438077173902, 55.9361940172216, 62.56397658018989 
-117.9718564312163, 14.906790899739365, 22.749530016499182, 173.8256887217541, 55.73464432004926, 62.56608825459633 
-118.85152803291177, 14.54355233383734, 22.749978049626517, 173.0791724987736, 55.535079952235876, 62.568185154925146 
-119.73081787464832, 14.182749231697446, 22.75041314235584, 172.33475989559727, 55.33752887678657, 62.57026671041074 
-120.60980045082417, 13.824465040569233, 22.750835326696265, 171.59238096409098, 55.14201862024074, 62.572332359030106 
-121.48854842630594, 13.468782738941362, 22.75124464745349, 170.85196793992176, 54.94857628023938, 62.57438154758215 
-122.3671326228462, 13.115784841318943, 22.751641162005093, 170.11345517013183, 54.757228532577585, 62.57641373175937 
-123.2456220055539, 12.765553401730397, 22.752024940061318, 169.376779043429, 54.56800163776727, 62.57842837621226 
-124.12408366940511, 12.418170015954033, 22.752396063411773, 168.64187792307973, 54.38092144713368, 62.58042495460645 
-125.00258282578801, 12.073715822455547, 22.752754625658444, 167.9086920822911, 54.19601340846849, 62.58240294967272 
-125.88118278908203, 11.73227150202929, 22.75310073193522, 167.1771636419756, 54.01330257126084, 62.58436185324982 
-126.75994496327772, 11.393917276137401, 22.75343449861445, 166.4472365107946, 53.83281359152725, 62.58630116632053 
-127.63892882865063, 11.058732903942321, 22.753756053000995, 165.7188563273812, 53.65457073625965, 62.588220399040935 
-128.51819192850695, 10.726797678029929, 22.754065533013947, 164.99197040464696, 53.4785978875107, 62.59011907076305 
-129.3977898560257, 10.398190418821821, 22.754363086856703, 164.2665276760811, 53.304918546134054, 62.591996710050935 
-130.2777762412271, 10.07298946767707, 22.754648872675705, 163.5424786439535, 53.13355583519698, 62.59385285469033 
-131.1582027381027, 9.751272678685412, 22.754923058208327, 162.81977532933746, 52.96453250308157, 62.59568705169261 
-132.03911901194692, 9.43311740915566, 22.75518582042034, 162.09837122387094, 52.79787092629042, 62.59749885729203 
-132.92057272693611, 9.118600508804768, 22.755437345133583, 161.3782212431784, 52.6335931119717, 62.599287836937805 
-133.8026095340045, 8.807798307655215, 22.75567782664415, 160.6592816818788, 52.471720700178224, 62.60105356528004 
-134.68527305907216, 8.500786602650058, 22.755907467331696, 159.94151017010822, 52.31227496587424, 62.60279562615039 
-135.56860489168378, 8.197640642997255, 22.75612647726048, 159.22486563148837, 52.155276820703335, 62.6045136125375 
-136.4526445741211, 7.898435114256925, 22.756335073772366, 158.50930824247519, 52.00074681453012, 62.60620712655724 
-137.33742959105612, 7.6032441211876, 22.756533481072736, 157.79479939302524, 51.84870513676806, 62.607875779417896 
-138.22299535981517, 7.312141169369663, 22.75672192980952, 157.08130164851855, 51.69917161750526, 62.609519191381004 
-139.10937522132824, 7.025199145626534, 22.756900656646017, 156.36877871288078, 51.552165728439356, 62.611136991717444 
-139.99660043183977, 6.742490297266975, 22.757069903828224, 155.65719539284947, 51.40770658363275, 62.612728818659164 
-140.88470015546093, 6.464086210173884, 22.757229918746905, 154.94651756333042, 51.26581294009839, 62.61429431934706 
-141.77370145764488, 6.190057785768085, 22.757380953495332, 154.23671213379455, 51.12650319822653, 62.6158331497749 
-142.66362929966937, 5.920475216877923, 22.75752326442307, 153.52774701566605, 50.989795402061915, 62.617344974729384 
-143.554506534213, 5.65540796254834, 22.757657111686413, 152.81959109065497, 50.85570723944114, 62.61882946772715 
-144.44635390211118, 5.394924721825776, 22.757782758796147, 152.11221417999025, 50.72425604199903, 62.62028631094811 
-145.33919003038127, 5.139093406558251, 22.757900472163193, 151.40558701451025, 50.59545878505295, 62.6217151951663 
-146.23303143160476, 4.887981113252574, 22.75801052064264, 150.69968120556987, 50.46933208737349, 62.623115819677516 
-147.1278925047567, 4.641654094033498, 22.758113175076957, 149.994469216725, 50.34589221084971, 62.62448789222452 
-148.02378553756984, 4.40017772675279, 22.75820870783884, 149.2899243361573, 50.225155060056856, 62.62583112892015 
-148.92072071052323, 4.16361648429851, 22.75829739237426, 148.58602064980298, 50.107136181734184, 62.62714525416798 
-149.81870610254117, 3.932033903158249, 22.758379502746514, 147.88273301515179, 49.991850764180356, 62.62843000058135 
-150.7177476984895, 3.7054925512923007, 22.75845531318164, 147.18003703568255, 49.87931363657349, 62.62968510890069 
-151.61784939855107, 3.484053995375944, 22.758525097616, 146.47790903590504, 49.7695392682228, 62.63091032790934 
-152.51901302956378, 3.2677787674724343, 22.75858912924648, 145.77632603697683, 49.662541767758505, 62.63210541434829 
-153.42123835839752, 3.056726331201098, 22.758647680083946, 145.07526573286708, 49.55833488226657, 62.633270132829786 
-154.32452310744586, 2.8509550474674117, 22.758701020510575, 144.37470646703983, 49.45693199637437, 62.63440425575034 
-155.22886297230306, 2.6505221398243024, 22.758749418841656, 143.6746272096298, 49.3583461312935, 62.63550756320321 
-156.1342516416932, 2.455483659536377, 22.75879314089234, 142.9750075350858, 49.26258994382545, 62.63657984289029 
-157.04068081971263, 2.2658944504209098, 22.758832449549995, 142.27582760025797, 49.16967572533591, 62.63762089003426 
-157.94814025044266, 2.081808113541314, 22.758867604352755, 141.57706812290473, 49.079615400703105, 62.638630507290635 
-158.85661774498251, 1.9032769718309168, 22.758898861074716, 140.87871036059855, 48.99242052724542, 62.63960850466009 
-159.76609921094743, 1.7303520347263432, 22.758926471318418, 140.18073609000822, 48.9081022936335, 62.640554699401534 
-160.67656868446954, 1.5630829628913305, 22.758950682115124, 139.48312758653793, 48.82667151879165, 62.6414689159457 
-161.58800836473188, 1.4015180331131394, 22.758971735533414, 138.78586760430377, 48.74813865079333, 62.642350985809756 
-162.5003986510594, 1.2457041034546523, 22.758989868296595, 138.0889393564286, 48.672513765755305, 62.64320074751297 
-163.41371818258224, 1.0956865787460304, 22.759005311409467, 137.39232649563777, 48.59980656673484, 62.64401804649385 
-164.32794388047893, 0.9515093765003833, 22.75901828979501, 136.69601309513865, 48.53002638263411, 62.644802735028605 
-165.2430509927984, 0.8132148933382177, 22.759029021941217, 135.9999836297672, 48.463182167116045, 62.64555467215138 
-166.1590131418521, 0.6808439720051803, 22.7590377195589, 135.30422295738643, 48.39928249753532, 62.646273723576435 
-167.07580237415684, 0.5544358690675868, 22.759044587250592, 134.60871630052094, 48.338335573888315, 62.64695976162206 
-167.9933892129026, 0.43402822336936525, 22.75904982219124, 133.91344922821392, 48.28034921778561, 62.64761266513709 
-168.9117427129077, 0.31965702533337825, 22.759053613820925, 133.21840763809178, 48.225330871450424, 62.648232319429574 
-169.8308305180172, 0.2113565871885984, 22.75905614355012, 132.52357773862389, 48.17328759674612, 62.648818616197765 
-170.75061892088877, 0.10915951420332466, 22.759057584477883, 131.82894603156396, 48.124226074236134, 62.64937145346424 
-171.6710729251036, 0.013096677002602147, 22.759058101123255, 131.1344992945611, 48.07815260227889, 62.64989073551237 
-172.59215630952858, -0.07680281495400419, 22.759057849170368, 130.44022456392818, 48.03507309616078, 62.650376372826074 
-173.51383169484885, -0.16051163866073767, 22.759056975227463, 129.7461091175566, 47.99499308726956, 62.65082828203229 
-174.4360606121799, -0.2380042815491846, 22.759055616600264, 129.05214045796578, 47.957917722310874, 62.65124638584702 
-175.35880357366094, -0.30925706409924447, 22.75905390107986, 128.35830629547684, 47.9238517625698, 62.65163061302439 
-176.2820201449221, -0.3742481610131896, 22.75905194674557, 127.66459453150036, 47.89279958322006, 62.65198089830918 
-177.2056690193107, -0.4329576208919059, 22.75904986178285, 126.97099324192749, 47.864765172682276, 62.65229718239311 
-178.12970809375483, -0.48536738435659427, 22.75904774431663, 126.27749066061536, 47.839752132033595, 62.652579411874136 
-179.05409454613425, -0.5314613005631487, 22.759045682260275, 125.58407516295664, 47.817763674469944, 62.652827539220254 
-179.97878491402375, -0.5712251420608879, 22.759043753180254, 124.89073524952416, 47.79880262482267, 62.653041522736245 
179.09626482533363, -0.6046466179520439, 22.759042024176942, 124.19745952978172, 47.78287141913062, 62.65322132653494 
178.17109917396937, -0.6317153853130287, 22.759040551781396, 123.50423670585175, 47.76997210426919, 62.65336692051176 
177.24576303120156, -0.652423058843718, 22.75903938186856, 122.81105555633158, 47.760106337636905, 62.65347828032374 
176.32030161087062, -0.6667632187159898, 22.759038549586787, 122.11790492014914, 47.75327538690071, 62.6535553873722 
175.39476035795937, -0.674731416598058, 22.759038079303828, 121.4247736804501, 47.7494801298006, 62.653598228789534 
174.46918486475877, -0.6763251798367267, 22.75903798456947, 120.73165074850793, 47.74872105401393, 62.65360679743002 
173.54362078674356, -0.6715440137848914, 22.759038268094724, 120.03852504764812, 47.750998257079914, 62.65358109186479 
172.61811375832386, -0.6603894022673814, 22.759038921747617, 119.345385497179, 47.756311446384615, 62.653521116380695 
171.6927093086377, -0.6428648061837785, 22.759039926565755, 118.65222099632031, 47.76465993920614, 62.65342688098358 
170.76745277755154, -0.6189756602523088, 22.75904125278536, 117.9590204081213, 47.77604266282034, 62.653298401405145 
169.84238923203236, -0.5887293679046435, 22.759042859887007, 117.26577254336053, 47.79045815466629, 62.653135699114365 
168.9175633830557, -0.5521352943468494, 22.75904469665787, 116.57246614441813, 47.80790456257152, 62.65293880133257 
167.99301950320967, -0.5092047578072648, 22.759046701270336, 115.87908986911303, 47.82837964503611, 62.65270774105273 
167.06880134515328, -0.4599510189972551, 22.7590488013771, 115.18563227449593, 47.85188077157498, 62.6524425570627 
166.1449520610824, -0.4043892688163233, 22.759050914222307, 114.4920818005897, 47.87840492311753, 62.652143293972124 
165.22151412335353, -0.3425366143378296, 22.759052946768946, 113.79842675406807, 47.90794869246335, 62.65181000224379 
164.2985292464092, -0.2744120631166555, 22.759054795841923, 113.10465529186405, 47.94050828479301, 62.65144273822795 
163.37603831014428, -0.20003650586489488, 22.75905634828708, 112.41075540469849, 47.9760795182323, 62.65104156420118 
162.45408128484524, -0.11943269754597645, 22.75905748114548, 111.71671490051958, 48.01465782446845, 62.65060654840821 
161.53269715782858, -0.03262523694219073, 22.759058061843138, 111.02252138784351, 48.05623824941675, 62.6501377651079 
160.6119238618967, 0.0603594552456607, 22.759057948395643, 110.32816225898647, 48.10081545393531, 62.649635294622236 
159.69179820572245, 0.15949315970381012, 22.75905698962759, 109.63362467317756, 48.14838371458635, 62.649099223388745 
158.77235580626464, 0.2647458831500907, 22.759055025406383, 108.93889553954236, 48.19893692444158, 62.64852964401649 
157.85363102331021, 0.37608588424827527, 22.759051886890237, 108.24396149994574, 48.25246859392922, 62.64792665534473 
156.935656896228, 0.49347970071983266, 22.759047396789985, 107.54880891168318, 48.308971851720486, 62.64729036250496 
156.01846508301168, 0.6168921775782645, 22.75904136964431, 106.8534238300085, 48.36843944565247, 62.64662087698558 
155.1020858016804, 0.7462864964088067, 22.759033612108066, 106.15779199048585, 48.43086374368481, 62.64591831669937 
154.1865477740956, 0.8816242056142962, 22.75902392325333, 105.46189879115371, 48.49623673488714, 62.64518280605379 
153.27187817224464, 1.022865251546331, 22.759012094882774, 104.76572927448736, 48.56455003045398, 62.64441447602308 
152.35810256703124, 1.16996801043945, 22.75899791185489, 104.06926810914634, 48.635794864744014, 62.64361346422353 
151.44524487960538, 1.3228893210649852, 22.758981152420745, 103.37249957149288, 48.70996209634001, 62.64277991499006 
150.53332733525443, 1.4815845180205776, 22.75896158857166, 102.67540752686635, 48.78704220912592, 62.641913979455225 
149.62237041986992, 1.6460074655706816, 22.75893898639751, 101.97797541059825, 48.86702531337721, 62.64101581562989 
148.71239283899473, 1.8161105919534881, 22.75891310645512, 101.28018620875197, 48.94990114686066, 62.64008558848534 
147.80341147944736, 1.9918449240695637, 22.758883704146168, 100.58202243857023, 49.035659075939094, 62.63912347003701 
146.895441373512, 2.1731601224680475, 22.75885053010431, 99.88346612861315, 49.12428809667724, 62.63812963942939 
145.98849566567415, 2.3600045165469, 22.75881333059076, 99.18449879856824, 49.2157768359438, 62.63710428302179 
145.08258558187586, 2.5523251398844278, 22.758771847897982, 98.48510143871374, 49.310113552505356, 62.63604759447525 
144.17772040125504, 2.750067765620777, 22.758725820760965, 97.78525448901509, 49.40728613810704, 62.63495977483967 
143.27390743032868, 2.9531769418091134, 22.758674984775347, 97.08493781783413, 49.507282118535315, 62.633841032641776 
142.37115197957192, 3.161596026657978, 22.758619072822103, 96.38413070022887, 49.610088654657226, 62.63269158397294 
141.4694573423397, 3.3752672235880694, 22.758557815498023, 95.68281179582189, 49.715692543431196, 62.63151165257737 
140.5688247760717, 3.5941316160285504, 22.758490941551514, 94.98095912621297, 49.82408021888345, 62.63030146993972 
139.66925348571675, 3.818129201880152, 22.758418178323094, 94.27855005191199, 49.935237753044504, 62.62906127537255 
138.7707406093072, 4.047198927574652, 22.758339252190126, 93.57556124876554, 50.04915085683978, 62.62779131610296 
137.87328120561148, 4.281278721662487, 22.758253889015002, 92.87196868385108, 50.16580488092807, 62.62649184735851 
136.97686824378715, 4.520305527863011, 22.758161814596363, 92.16774759080988, 50.285184816481525, 62.625163132451824 
136.08149259495514, 4.76421533751433, 22.758062755122623, 91.46287244458942, 50.40727529590074, 62.62380544286422 
135.187143025613, 5.012943221362264, 22.75795643762739, 90.75731693556494, 50.532060593457864, 62.6224190583275 
134.2938061928019, 5.266423360631001, 22.757842590445957, 90.05105394300723, 50.659524625860904, 62.62100426690406 
133.40146664094104, 5.524589077320348, 22.757720943672386, 89.34405550786401, 50.78965095273192, 62.61956136506515 
132.5101068002421, 5.787372863677854, 22.75759122961662, 88.63629280481898, 50.92242277699148, 62.61809065776665 
131.6197069866146, 6.054706410796321, 22.757453183260896, 87.92773611359252, 51.057822945141716, 62.61659245852274 
130.7302454029733, 6.3265206362906845, 22.757306542715003, 87.21835478944541, 51.195833947439894, 62.61506708947667 
129.84169814185876, 6.602745711010531, 22.757151049669613, 86.5081172328459, 51.33643791795409, 62.61351488146862 
128.954039189282, 6.883311084747889, 22.756986449847346, 85.79699085825787, 51.47961663449252, 62.611936174100684 
128.0672404297064, 7.168145510902211, 22.756812493450596, 85.08494206200704, 51.62535151839734, 62.61033131579829 
127.18127165207889, 7.457177070067752, 22.756628935605995, 84.3719361891793, 51.7736236341939, 62.608700663868255 
126.29610055682679, 7.750333192511006, 22.756435536804442, 83.65793749950355, 51.924413689085775, 62.60704458455281 
125.41169276373633, 8.047540679508447, 22.75623206333658, 82.94290913216963, 52.077702032285444, 62.6053634530801 
124.52801182063239, 8.348725723517916, 22.75601828772274, 82.22681306952917, 52.233468654170686, 62.603657653709945 
123.64501921278132, 8.65381392715896, 22.755793989137075, 81.50961009962518, 52.391693185255505, 62.60192757977563 
122.76267437294113, 8.962730320980503, 22.755558953825204, 80.79125977749412, 52.55235489496486, 62.600173633720885 
121.88093469198738, 9.275399379996154, 22.755312975514798, 80.071720385181, 52.715432690201396, 62.59839622713218 
120.99975553004558, 9.59174503897033, 22.755055855818586, 79.35094889040602, 52.880905113692194, 62.59659578076583 
120.11909022806567, 9.911690706440073, 22.754787404629333, 78.62890090381865, 53.04875034210304, 62.59477272457011 
119.23889011977697, 10.2351592774602, 22.754507440506075, 77.90553063477147, 53.21894618390723, 62.59292749770192 
118.35910454396725, 10.562073145061156, 22.754215791051298, 77.18079084554432, 53.391470076995255, 62.591060548537776 
117.47968085703356, 10.892354210410993, 22.753912293278432, 76.45463280394546, 53.56629908601122, 62.58917233467919 
116.6005644457564, 11.225923891675272, 22.75359679396921, 75.72700623421329, 53.74340989940143, 62.58726332295205 
115.7216987402557, 11.562703131569837, 22.75326915002041, 74.99785926613984, 53.92277882615933, 62.58533398939997 
114.84302522708914, 11.902612403604023, 22.75292922877954, 74.26713838233242, 54.10438179225137, 62.58338481927138 
113.9644834624619, 12.24557171701279, 22.752576908368987, 73.53478836352794, 54.288194336706184, 62.58141630699996 
113.08601108551942, 12.59150062037875, 22.75221207799813, 72.80075223186934, 54.47419160735038, 62.579428956179115 
112.20754383170271, 12.940318203945722, 22.751834638263173, 72.06497119205108, 54.662348356171854, 62.577423279529 
111.32901554614976, 13.291943100628067, 22.7514445014341, 71.32738457023567, 54.85263893429193, 62.5753997988572 
110.4503581971341, 13.646293485720355, 22.75104159172845, 70.58792975064048, 55.045037286525854, 62.57335904501233 
109.57150188953655, 14.003287075314374, 22.750625845571513, 69.84654210968887, 55.23951694551075, 62.571301557830495 
108.69237487835335, 14.362841123431256, 22.75019721184265, 69.10315494761609, 55.43605102537898, 62.56922788607451 
107.8129035822503, 14.724872417878013, 22.749755652107286, 68.35769941741648, 55.634612214953464, 62.56713858736584 
106.9330125971787, 15.089297274839284, 22.749301140834305, 67.610104451013, 55.835172770441034, 62.565034228109184 
106.05262471007703, 15.456031532215997, 22.748833665598564, 66.86029668252718, 56.03770450759798, 62.56291538340939 
105.17166091268803, 15.82499054172451, 22.748353227268176, 66.10820036852172, 56.24217879334121, 62.56078263698087 
