# MEX_intpoint_lon [deg], MEX_intpoint_lat [deg], MEX_intpoint_angle [deg], TGO_intpoint_lon [deg], TGO_intpoint_lat [deg], TGO_intpoint_angle [deg] 
-104.87929144325884, 20.634334880447053, 22.868059632512402, 177.92540983460643, 58.70870042496952, 62.53783737477388 
-105.77082887601561, 20.238527490097525, 22.868711932751356, 177.15035512011985, 58.47573480176434, 62.540170278491644 
-106.66065628365567, 19.84387785342857, 22.8693519983069, 176.37865265954912, 58.244388711834546, 62.54249682813751 
-107.54887646631018, 19.450478427576442, 22.869979648860454, 175.61018924676307, 58.01469700958204, 62.544816319808426 
-108.43559055112051, 19.0584209839078, 22.870594718908492, 174.8448554746806, 57.786693957677706, 62.547128056919746 
-109.32089797373163, 18.667796631284723, 22.871197057782048, 174.08254559517195, 57.56041324490873, 62.549431350400226 
-110.20489646088488, 18.278695838303577, 22.871786529648247, 173.32315738474685, 57.33588800296867, 62.551725518878364 
-111.08768201396428, 17.89120845447621, 22.872363013494052, 172.56659201579097, 57.113150822245, 62.554009888860485 
-111.96934889336343, 17.505423730323628, 22.87292640309226, 171.812753933119, 56.89223376665457, 62.55628379489982 
-112.84998960354935, 17.121430336354873, 22.873476606949836, 171.06155073561982, 56.67316838757581, 62.558546579757284 
-113.72969487871156, 16.73931638090495, 22.874013548238594, 170.31289306277594, 56.45598573692306, 62.56079759455378 
-114.60855366889348, 16.35916942680786, 22.874537164708528, 169.56669448584816, 56.240716379406685, 62.5630361989136 
-115.4866531265136, 15.981076506882163, 22.875047408583924, 168.82287140352216, 56.02739040401953, 62.565261761099535 
-116.36407859319361, 15.605124138207854, 22.875544246442207, 168.08134294182224, 55.816037434789244, 62.567473658139605 
-117.24091358681893, 15.231398335175053, 22.876027659076026, 167.3420308581047, 55.60668664083259, 62.5696712759449 
-118.11723978876672, 14.859984621286046, 22.876497641338595, 166.60485944894893, 55.399366745747166, 62.571854009419525 
-118.99313703124442, 14.490968039693762, 22.876954201972552, 165.86975546177473, 55.19410603637337, 62.57402126256195 
-119.86868328469059, 14.12443316246078, 22.877397363422684, 165.13664801001656, 54.99093237095813, 62.57617244855802 
-120.7439546451974, 13.760464098524517, 22.877827161632613, 164.40546849169718, 54.78987318675009, 62.57830698986597 
-121.6190253219223, 13.399144500355014, 22.878243645826004, 163.67615051124514, 54.5909555070547, 62.580424318293396 
-122.49396762446331, 13.040557569293538, 22.878646878272278, 162.9486298044107, 54.39420594777589, 62.58252387506591 
-123.36885195018075, 12.684786059560814, 22.87903693403745, 162.22284416613786, 54.19965072347003, 62.5846051108882 
-124.2437467714539, 12.331912280925552, 22.879413900720248, 161.4987333812589, 54.00731565293649, 62.5866674859973 
-125.11871862286937, 11.982018100024645, 22.87977787817401, 160.77623915788052, 53.817226164367725, 62.58871047020808 
-125.99383208834364, 11.635184940328157, 22.88012897821462, 160.05530506333983, 53.629407300081056, 62.590733542951305 
-126.86914978818899, 11.291493780743464, 22.880467324315, 159.33587646260995, 53.44388372085313, 62.59273619330427 
-127.74473236613922, 10.951025152853973, 22.880793051286467, 158.61790045904328, 53.260679709876875, 62.59471792001436 
-128.62063847635554, 10.61385913678995, 22.881106304947476, 157.9013258373439, 53.079819176360196, 62.59667823151526 
-129.49692477044186, 10.280075355729881, 22.881407241780135, 157.18610300866519, 52.90132565878447, 62.59861664593653 
-130.37364588450146, 9.94975296903285, 22.88169602857498, 156.472183957734, 52.72522232784034, 62.60053269110627 
-131.2508544262754, 9.622970664003763, 22.881972842064485, 155.75952219190677, 52.55153198905721, 62.602425904547125 
-132.12860096240541, 9.299806646295318, 22.882237868545808, 155.0480726920673, 52.38027708514258, 62.60429583346634 
-133.00693400587255, 8.980338628952127, 22.88249130349322, 154.33779186527929, 52.21147969804633, 62.60614203473891 
-133.8859000036644, 8.664643820104594, 22.88273335116081, 153.62863749911153, 52.04516155076429, 62.60796407488539 
-134.765543324731, 8.35279890932211, 22.882964224175943, 152.92056871755688, 51.881344008895425, 62.60976153004351 
-135.64590624829293, 8.044880052637023, 22.88318414312405, 152.2135459384693, 51.72004808196582, 62.61153398593417 
-136.5270289525697, 7.740962856253329, 22.88339333612522, 151.5075308324472, 51.56129442453219, 62.61328103782234 
-137.4089495039998, 7.441122358956227, 22.883592038403272, 150.80248628309425, 51.40510333707752, 62.615002290472304 
-138.29170384702897, 7.145433013240941, 22.883780491847762, 150.0983763485921, 51.251494766710536, 62.6166973580984 
-139.17532579454596, 6.853968665181677, 22.883958944569574, 149.39516622452186, 51.10048830768037, 62.61836586431067 
-140.05984701904728, 6.56680253306455, 22.88412765045068, 148.6928222078748, 50.952103201717556, 62.62000744205611 
-140.94529704461777, 6.284007184810125, 22.884286868688594, 147.9913116621947, 50.806358338211716, 62.62162173355562 
-141.83170323981417, 6.005654514214852, 22.884436863336212, 147.2906029837974, 50.66327225423636, 62.62320839023688 
-142.71909081154155, 5.731815716042719, 22.884577902837574, 146.5906655690151, 50.522863134430416, 62.624767072663325 
-143.6074828000159, 5.462561260001707, 22.884710259560222, 145.8914697824155, 50.38514881074602, 62.62629745045965 
-144.49690007490574, 5.197960863642266, 22.884834209324666, 145.19298692594842, 50.250146762071786, 62.627799202233795 
-145.38736133274742, 4.93808346421826, 22.884950030931698, 144.4951892089738, 50.11787411374032, 62.62927201549592 
-146.27888309573012, 4.682997189553451, 22.885058005688116, 143.7980497191285, 49.98834763692854, 62.63071558657451 
-147.17147971194626, 4.432769327959874, 22.885158416931468, 143.1015423939891, 49.86158374795888, 62.63212962052962 
-148.06516335720235, 4.187466297257366, 22.88525154955447, 142.4056419934923, 49.737598507509794, 62.63351383106418 
-148.9599440384866, 3.9471536129464666, 22.885337689529695, 141.71032407307433, 49.61640761974267, 62.63486794043267 
-149.8558295991857, 3.7118958555900745, 22.885417123435218, 141.01556495749332, 49.498026431353075, 62.63619167934814 
-150.75282572614466, 3.481756637462039, 22.88549013798174, 140.32134171529992, 49.382469930553434, 62.6374847868875 
-151.65093595865903, 3.256798568523947, 22.88555701954194, 139.6276321339237, 49.269752745993955, 62.638747010395484 
-152.55016169948806, 3.0370832217941897, 22.88561805368257, 138.9344146953431, 49.15988914562884, 62.63997810538737 
-153.45050222797317, 2.8226710981761833, 22.885673524699914, 138.2416685523094, 49.05289303553409, 62.64117783545067 
-154.35195471534323, 2.613621590815431, 22.88572371515932, 137.54937350509545, 48.94877795868345, 62.64234597214624 
-155.2545142422835, 2.4099929490575827, 22.885768905439335, 136.8575099787422, 48.84755709368839, 62.64348229490904 
-156.15817381884142, 2.211842242082284, 22.885809373281017, 136.16605900077633, 48.74924325350829, 62.644586590948386 
-157.06292440673576, 2.019225322289939, 22.885845393343065, 135.4750021793742, 48.65384888413644, 62.64565865514848 
-157.96875494413223, 1.832196788520558, 22.88587723676342, 134.7843216819482, 48.56138606326739, 62.64669828996905 
-158.87565237294018, 1.6508099491861492, 22.885905170727735, 134.09400021413225, 48.47186649895118, 62.64770530534656 
-159.7836016686807, 1.4751167853996296, 22.885929458045446, 133.4040209991451, 48.38530152823938, 62.64867951859594 
-160.69258587296764, 1.3051679141850805, 22.885950356733975, 132.7143677575103, 48.30170211582821, 62.649620754313446 
-161.60258612863683, 1.1410125518555427, 22.885968119611523, 132.02502468711262, 48.22107885270341, 62.65052884428053 
-162.5135817175503, 0.9826984776455095, 22.885982993899127, 131.33597644357243, 48.14344195479151, 62.651403627369 
-163.42555010109413, 0.8302719976863865, 22.88599522083237, 130.64720812091943, 48.068801261622234, 62.65224494944799 
-164.33846696338085, 0.6837779094136337, 22.886005035283365, 129.95870523254808, 47.997166235005935, 62.65305266329229 
-165.2523062571564, 0.543259466494834, 22.8860126653935, 129.27045369243865, 47.92854595773061, 62.65382662849306 
-166.16704025240534, 0.4087583443677162, 22.886018332217333, 128.58243979662726, 47.86294913228233, 62.654566711370265 
-167.08263958763604, 0.2803146064771223, 22.88602224937823, 127.89465020491036, 47.80038407959277, 62.65527278488785 
-167.99907332381937, 0.15796667129915867, 22.886024622736137, 127.20707192276807, 47.740858737817796, 62.655944728571036 
-168.91630900094492, 0.04175128023998115, 22.88602565006799, 126.51969228349341, 47.68438066115032, 62.656582428426624 
-169.8343126971478, -0.06829653350466702, 22.886025520761038, 125.8324989305131, 47.630957018670934, 62.65718577686602 
-170.75304909035063, -0.1721434750445448, 22.886024415519664, 125.14547979988743, 47.58059459323934, 62.657754672631064 
-171.6724815223548, -0.2697580167619928, 22.886022506086046, 124.45862310297704, 47.53329978042981, 62.6582890207235 
-172.59257206530518, -0.3611104260705485, 22.886019954974888, 123.77191730926387, 47.48907858751317, 62.65878873233728 
-173.51328159044408, -0.4461727918871773, 22.886016915222807, 123.0853511293159, 47.44793663248842, 62.65925372479459 
-174.43456983905918, -0.5249190497432237, 22.886013530152503, 122.3989134978838, 47.40987914316606, 62.65968392148538 
-175.35639549552295, -0.5973250054623364, 22.88600993315216, 121.71259355711905, 47.37491095630582, 62.66007925181057 
-176.2787162623105, -0.663368357337049, 22.886006247470288, 121.02638063990365, 47.34303651681077, 62.66043965112924 
-177.20148893687588, -0.7230287167397608, 22.886002586026347, 120.3402642532808, 47.31425987698, 62.660765060709366 
-178.12466949025801, -0.7762876271077889, 22.885999051237356, 119.65423406197732, 47.28858469582158, 62.661055427683124 
-179.04821314728008, -0.823128581246628, 22.885995734860725, 118.96827987200855, 47.26601423842751, 62.66131070500586 
-179.97207446819945, -0.8635370369001932, 22.885992717853515, 118.2823916143559, 47.2465513754124, 62.66153085141935 
179.10379256834136, -0.8975004305417602, 22.885990070248386, 117.59655932870928, 47.230198582416946, 62.66171583141966 
178.17943448121818, -0.925008189344324, 22.885987851046274, 116.91077314726448, 47.216957939677606, 62.66186561522888 
177.25489820174306, -0.9460517412944757, 22.885986108126044, 116.2250232785679, 47.20683113166347, 62.661980178771536 
176.33023098776187, -0.9606245234193309, 22.88598487817114, 115.5392999913999, 47.199819446781156, 62.662059503655385 
175.4054803370996, -0.9687219881016312, 22.88598418661351, 114.85359359868826, 47.195923777148465, 62.66210357715678 
174.48069390052564, -0.9703416074639793, 22.88598404759463, 114.1678944414441, 47.19514461843738, 62.662112392210226 
173.55591939441175, -0.9654828758087888, 22.88598446394387, 113.48219287271166, 47.197482069786666, 62.662085947402986 
172.63120451325852, -0.9541473101066804, 22.885985427174184, 112.79647924152437, 47.20293583378439, 62.66202424697374 
171.7065968422658, -0.9363384485317394, 22.885986917495078, 112.1107438768586, 47.21150521652038, 62.66192730081603 
170.7821437701225, -0.9120618470481263, 22.885988903842918, 111.42497707157766, 47.22318912770846, 62.661795124486254 
169.85789240219006, -0.8813250740583769, 22.88599134392843, 110.73916906635739, 47.23798608087816, 62.66162773921615 
168.93388947425282, -0.8441377031296547, 22.885994184301516, 110.05331003358573, 47.25589419363556, 62.661425171929736 
168.01018126700498, -0.800511303819854, 22.885997360433016, 109.36739006122771, 47.27691118799248, 62.66118745526468 
167.08681352144075, -0.7504594306313801, 22.886000796813587, 108.68139913664753, 47.301034390763284, 62.660914627598316 
166.16383135531098, -0.693997610125614, 22.88600440706944, 107.9953271303796, 47.32826073402855, 62.66060673307773 
165.24127918080367, -0.6311433262369031, 22.88600809409475, 107.30916377983964, 47.358586755664014, 62.66026382165434 
164.31920062360086, -0.5619160038296644, 22.886011750200613, 106.62289867296701, 47.39200859993412, 62.65988594912272 
163.3976384434588, -0.4863369905475336, 22.886015257280356, 105.93652123178948, 47.42852201814805, 62.65947317716342 
162.47663445644994, -0.4044295370081125, 22.88601848699097, 105.25002069590107, 47.46812236937729, 62.659025573390075 
161.55622945900058, -0.3162187754013672, 22.88602130095039, 104.56338610584338, 47.510804621232424, 62.65854321140041 
160.6364631538474, -0.22173169655407868, 22.886023550950444, 103.87660628638078, 47.556563350697466, 62.65802617083104 
159.71737407803053, -0.12099712552667928, 22.886025079185035, 103.18966982965917, 47.60539274501963, 62.65747453741604 
158.79899953303007, -0.014045695812443897, 22.8860257184935, 102.50256507823796, 47.65728660265214, 62.656888403049415 
157.88137551714573, 0.09909017778746076, 22.88602529261848, 101.81528010798436, 47.712238334247814, 62.656267865850715 
156.96453666020852, 0.21837632753675193, 22.886023616478393, 101.12780271081868, 47.770240963700594, 62.6556130302342 
156.04851616070565, 0.3437768623052913, 22.886020496453636, 100.4401203772992, 47.831287129232535, 62.65492400698141 
155.1333457253882, 0.47525419819733544, 22.886015730686623, 99.75222027903403, 47.89536908452316, 62.654200913316494 
154.21905551142353, 0.6127690901830655, 22.886009109394944, 99.06408925090788, 47.96247869987806, 62.6534438729847 
153.3056740711424, 0.7562806646479496, 22.88600041519733, 98.37571377310995, 48.03260746343367, 62.652653016333616 
152.39322829942316, 0.9057464527731998, 22.885989423452035, 97.68707995294969, 48.10574648239462, 62.65182848039693 
151.4817433837439, 1.061122424659331, 22.88597590260708, 96.99817350644588, 48.18188648430022, 62.65097040898054 
150.57124275692476, 1.2223630241042647, 22.885959614562022, 96.3089797396742, 48.26101781831627, 62.65007895275124 
149.6617480525728, 1.389421203946885, 22.885940315040653, 95.61948352985745, 48.34313045654825, 62.649154269326985 
148.7532790632326, 1.5622484618868475, 22.88591775397419, 94.92966930618229, 48.42821399537204, 62.64819652336937 
147.84585370123716, 1.7407948766916814, 22.88589167589451, 94.23952103032552, 48.516257656777555, 62.64720588667767 
146.93948796224396, 1.9250091447025848, 22.885861820336714, 93.54902217667181, 48.60725028972129, 62.64618253828409 
146.03419589143354, 2.1148386165513156, 22.88582792225077, 92.8581557122043, 48.7011803714829, 62.64512666455083 
145.12998955234025, 2.310229334001218, 22.885789712421378, 92.16690407604885, 48.798036009021246, 62.64403845926742 
144.22687899827505, 2.511126066827111, 22.885746917895872, 91.47524915865102, 48.89780494032487, 62.64291812374951 
143.3248722462963, 2.7174723496499276, 22.88569926241914, 90.783172280565, 49.0004745357519, 62.64176586693794 
142.42397525367457, 2.929210518643978, 22.885646466875386, 90.09065417083134, 49.10603179935404, 62.64058190549807 
141.52419189679327, 3.1462817480364045, 22.885588249735996, 89.39767494492115, 49.21446337017918, 62.63936646391958 
140.62552395242017, 3.368626086320729, 22.885524327512865, 88.70421408222109, 49.325755523547045, 62.63811977461585 
139.72797108127958, 3.5961824921084466, 22.88545441521664, 88.01025040303459, 49.43989417229203, 62.63684207802322 
138.83153081385035, 3.8288888695453043, 22.88537822681933, 87.31576204507161, 49.55686486796696, 62.63553362269942 
137.9361985383105, 4.066682103221172, 22.885295475720568, 86.62072643939923, 49.676652802002124, 62.63419466542157 
137.04196749054535, 4.309498092505284, 22.885205875216972, 85.92512028582385, 49.7992428068123, 62.63282547128269 
136.14882874613258, 4.557271785241417, 22.885109138974006, 85.22891952767348, 49.92461935684598, 62.631426313787344 
135.2567712142155, 4.809937210740206, 22.88500498149966, 84.53209932594864, 50.052766569569236, 62.6299974749453 
134.3657816331722, 5.067427512008995, 22.884893118619356, 83.83463403280766, 50.18366820637749, 62.62853924536381 
133.4758445679886, 5.329674977162292, 22.884773267951473, 83.13649716435113, 50.31730767342787, 62.62705192433758 
132.58694240923927, 5.596611069959243, 22.884645149382866, 82.43766137266836, 50.45366802238429, 62.62553581993666 
131.69905537358218, 5.868166459417087, 22.884508485543666, 81.73809841710738, 50.59273195106766, 62.623991249091645 
130.8121615056701, 6.144271048453103, 22.88436300228089, 81.03777913472744, 50.734481804003096, 62.622418537676346 
129.9262366813843, 6.424854001510062, 22.8842084291301, 80.33667340989207, 50.87889957285552, 62.620818020587095 
129.04125461229407, 6.709843771123694, 22.884044499784583, 79.63475014295767, 51.02596689674536, 62.61919004181928 
128.1571868512491, 6.999168123393019, 22.883870952561317, 78.93197721801134, 51.17566506243496, 62.61753495453995 
127.27400279901055, 7.292754162317977, 22.88368753086334, 78.22832146960927, 51.32797500437665, 62.615853121156995 
126.39166971183033, 7.590528352971254, 22.88349398363758, 77.52374864846426, 51.482877304612785, 62.6141449133843 
125.51015270988934, 7.8924165434738915, 22.883290065827907, 76.81822338602929, 51.64035219251765, 62.61241071230261 
124.62941478650747, 8.198343985747558, 22.88307553882245, 76.11170915792094, 51.80037954437103, 62.61065090841613 
123.749416818042, 8.508235355018302, 22.882850170894944, 75.40416824612419, 51.962938882752454, 62.60886590170431 
122.87011757439294, 8.822014768049955, 22.882613737639208, 74.69556169991712, 52.12800937574523, 62.607056101669066 
121.99147373003802, 9.139605800087091, 22.882366022396432, 73.98584929545146, 52.29556983593826, 62.605221927376384 
121.11343987552344, 9.460931500490597, 22.88210681667451, 73.27498949392154, 52.46559871921387, 62.60336380749333 
120.2359685293399, 9.785914407050637, 22.881835920559006, 72.56293939825159, 52.638074123308975, 62.60148218031888 
119.3590101501188, 10.11447655896449, 22.88155314311515, 71.8496547082273, 52.81297378613627, 62.59957749380952 
118.48251314908632, 10.446539508468595, 22.8812583027803, 71.13508967399493, 52.99027508385219, 62.597650205598605 
117.60642390271931, 10.782024331116274, 22.88095122774647, 70.41919704784698, 53.169955028656865, 62.59570078300989 
116.73068676555039, 11.1208516346948, 22.880631756332203, 69.7019280342101, 53.35199026631177, 62.593729703064426 
115.85524408307562, 11.462941566776863, 22.880299737343552, 68.98323223774688, 53.536357073359014, 62.5917374524814 
114.98003620472313, 11.80821382090391, 22.87995503042344, 68.26305760947878, 53.723031354026325, 62.5897245276719 
114.10500149684628, 12.156587641399936, 22.87959750638912, 67.54135039083397, 53.911988636800714, 62.58769143472602 
113.23007635571093, 12.507981826816508, 22.879227047557173, 66.81805505551803, 54.10320407065295, 62.58563868939312 
112.3551952204521, 12.862314732010788, 22.87884354805563, 66.09311424910261, 54.29665242089428, 62.58356681705468 
111.48029058598107, 13.219504268860483, 22.878446914122808, 65.3664687262205, 54.49230806464595, 62.58147635268996 
110.60529301583085, 13.579467905620355, 22.87803706439245, 64.63805728525178, 54.69014498590082, 62.57936784083433 
109.73013115493369, 13.942122664926897, 22.87761393016477, 63.90781670038013, 54.890136770155976, 62.57724183552966 
108.85473174233064, 14.307385120458882, 22.877177455663006, 63.17568165089246, 55.09225659859338, 62.57509890026756 
107.97901962382166, 14.675171392262627, 22.876727598275192, 62.44158464759022, 55.296477241785155, 62.57293960792419 
107.10291776456916, 15.045397140752364, 22.87626432878072, 61.705455956174006, 55.50277105289851, 62.5707645406876 
106.22634726167743, 15.41797755939717, 22.87578763156147, 60.967223517458066, 55.71110996037405, 62.56857428997675 
105.34922735677644, 15.79282736610715, 22.875297504797103, 60.22681286426367, 55.92146546004991, 62.56636945635255 
