# MEX_intpoint_lon [deg], MEX_intpoint_lat [deg], MEX_intpoint_angle [deg], TGO_intpoint_lon [deg], TGO_intpoint_lat [deg], TGO_intpoint_angle [deg] 
-104.01994910082026, 20.439118465907768, 22.34669526586849, -151.05146612151952, 59.09555444282705, 62.52893198186312 
-104.92760526152433, 20.070101764149534, 22.347283855885774, -151.8478878246262, 58.87377492833403, 62.53113592740452 
-105.83356795391441, 19.702091126576196, 22.347862041417354, -152.6407666421804, 58.65348853924582, 62.533334204731524 
-106.73792883384935, 19.33517625835973, 22.348429658780454, -153.43021616244195, 58.43473071364602, 62.53552614818331 
-107.64077823012329, 18.969446202161247, 22.348986556887997, -154.21634636963893, 58.21753626377058, 62.53771109860596 
-108.54220511630746, 18.604989354962175, 22.34953259726819, -154.99926376717193, 58.001939394362914, 62.539888403538235 
-109.44229708402737, 18.241893484171865, 22.35006765406884, -155.77907149636584, 57.787973720019494, 62.542057417389614 
-110.34114031754771, 17.880245742974537, 22.350591614046596, -156.55586945090667, 57.57567228157404, 62.544217501610916 
-111.2388195695473, 17.520132684880203, 22.351104376540967, -157.32975438710181, 57.365067561565354, 62.5463680248573 
-112.13541813797404, 17.161640277447166, 22.351605853433394, -158.10082003010274, 57.15619149883236, 62.548508363143384 
-113.03101784387812, 16.804853915144964, 22.352095969091337, -158.86915717622674, 56.94907550227739, 62.5506378999912 
-113.92569901012966, 16.449858431329126, 22.352574660297545, -159.63485379151425, 56.7437504638371, 62.552756026569945 
-114.81954044093517, 16.096738109300965, 22.353041876164593, -160.39799510665557, 56.54024677069844, 62.55486214182871 
-115.71261940207425, 15.745576692426942, 22.35349757803493, -161.1586637084192, 56.338594316795124, 62.55695565262124 
-116.60501160178565, 15.396457393294632, 22.353941739366505, -161.91693962771004, 56.13882251361883, 62.55903597382328 
-117.49679117223938, 15.049462901883192, 22.354374345604196, -162.67290042438555, 55.940960300377256, 62.561102528442575 
-118.38803065153806, 14.704675392728529, 22.35479539403722, -163.42662126895192, 55.74503615353004, 62.563154747721214 
-119.27880096619809, 14.362176531064334, 22.355204893642824, -164.1781750212612, 55.55107809573166, 62.56519207123059 
-120.16917141406742, 14.02204747792226, 22.355602864916325, -164.92763230632673, 55.35911370420968, 62.56721394695939 
-121.05920964764434, 13.684368894175442, 22.355989339687934, -165.67506158736984, 55.16917011860467, 62.569219831393845 
-121.94898165776623, 13.349220943511682, 22.35636436092649, -166.42052923620906, 54.98127404829759, 62.571209189591244 
-122.83855175764549, 13.016683294323489, 22.35672798253046, -167.16409960109834, 54.79545177924871, 62.57318149524616 
-123.7279825672346, 12.686835120504185, 22.35708026910646, -167.90583507211755, 54.611729180371434, 62.575136230749834 
-124.61733499790822, 12.359755101140387, 22.357421295735655, -168.6457961442163, 54.430131709462984, 62.57707288724265 
-125.50666823745681, 12.035521419092971, 22.35775114772833, -169.3840414780067, 54.25068441871328, 62.578990964659745 
-126.39603973539056, 11.714211758460024, 22.358069920366912, -170.12062795839958, 54.073411959812205, 62.58088997177037 
-127.28550518855909, 11.395903300916691, 22.35837771863799, -170.8556107511734, 53.898338588674356, 62.58276942621028 
-128.17511852709626, 11.080672720928918, 22.358674656953426, -171.58904335756353, 53.725488169800066, 62.58462885450813 
-129.06493190070591, 10.768596179838996, 22.358960858861224, -172.32097766695526, 53.55488418029022, 62.58646779210539 
-129.95499566530776, 10.459749318823187, 22.359236456746277, -173.05146400776113, 53.386549713531736, 62.588285783370424 
-130.84535837006854, 10.154207250722875, 22.359501591521663, -173.78055119656082, 53.22050748257003, 62.59008238160641 
-131.7360667448472, 9.852044550752767, 22.359756412310634, -174.5082865855776, 53.056779823184, 62.591857149053666 
-132.62716568808787, 9.553335246091365, 22.360001076120014, -175.23471610856396, 52.895388696678346, 62.59360965688624 
-133.5186982551979, 9.2581528043607, 22.360235747505158, -175.95988432516495, 52.73635569240749, 62.595339485203134 
-134.41070564745263, 8.966570121004525, 22.360460598227142, -176.6838344638263, 52.579702030045, 62.59704622301421 
-135.3032272014718, 8.678659505575611, 22.36067580690254, -177.40660846331042, 52.42544856161145, 62.598729468221066 
-136.19630037931663, 8.394492666945396, 22.360881558646295, -178.1282470128826, 52.273615773273434, 62.60038882759296 
-137.08996075925927, 8.114140697450889, 22.36107804470807, -178.8487895912254, 52.12422378692604, 62.602023916738 
-137.98424202727955, 7.837674055996024, 22.361265462102693, -179.5682745041383, 51.97729236157032, 62.603634360069776 
-138.87917596934676, 7.56516255012673, 22.361444013235126, 179.71326107892273, 51.83284089449694, 62.60521979076962 
-139.7747924645469, 7.296675317101415, 22.361613905520443, 178.99578108941466, 51.69088842228719, 62.60677985074503 
-140.6711194791177, 7.032280803980435, 22.361775350999288, 178.27925052533467, 51.55145362164131, 62.608314190583506 
-141.56818306145564, 6.772046746760887, 22.361928565949476, 177.5636354178578, 51.414554810044635, 62.609822469503364 
-142.46600733816177, 6.516040148585024, 22.362073770493993, 176.84890279893884, 51.280209946280955, 62.611304355300405 
-143.364614511193, 6.264327257053093, 22.36221118820622, 176.1350206698346, 51.14843663080263, 62.612759524291725 
-144.26402485618806, 6.016973540673837, 22.36234104571262, 175.42195797050312, 51.01925210596625, 62.6141876612559 
-145.1642567220369, 5.774043664488211, 22.36246357229364, 174.70968454984063, 50.89267325614298, 62.61558845937073 
-146.06532653176325, 5.535601464904272, 22.362578999483144, 173.99817113671622, 50.768716607711426, 62.616961620148146 
-146.96724878479074, 5.301709923783682, 22.362687560667144, 173.28738931176727, 50.647398328941655, 62.61830685336621 
-147.87003606066054, 5.0724311418225945, 22.362789490682097, 172.57731147991979, 50.52873422977802, 62.61962387699954 
-148.77369902427046, 4.847826311272059, 22.362885025413576, 171.86791084359905, 50.41273976152816, 62.62091241714701 
-149.67824643270248, 4.627955688045554, 22.362974401395547, 171.15916137659838, 50.29943001646605, 62.62217220795806 
-150.5836851437052, 4.412878563263313, 22.363057855411096, 170.45103779857317, 50.18881972735561, 62.62340299155715 
-151.490020125895, 4.202653234285722, 22.363135624094824, 169.7435155501317, 50.080923266902076, 62.62460451796674 
-152.3972544707389, 3.997336975289873, 22.3632079435377, 169.03657076849169, 49.97575464713769, 62.62577654502921 
-153.30538940637783, 3.7969860074458186, 22.36327504889468, 168.33018026367674, 49.87332751874804, 62.626918838327775 
-154.2144243133475, 3.6016554687508657, 22.363337173995813, 167.62432149522473, 49.773655170345414, 62.62803117110634 
-155.12435674224943, 3.4113993835823213, 22.363394550961132, 166.91897254938323, 49.67675052769487, 62.629113324189184 
-156.0351824334224, 3.226270632030823, 22.363447409820047, 166.21411211676698, 49.58262615289911, 62.6301650858999 
-156.9468953386587, 3.0463209190782425, 22.36349597813556, 165.50971947045494, 49.49129424354765, 62.63118625198034 
-157.85948764500654, 2.871600743685495, 22.363540480633947, 164.80577444450316, 49.40276663183552, 62.632176625509665 
-158.7729498006946, 2.702159367857232, 22.3635811388403, 164.10225741285294, 49.31705478365699, 62.633136016823435 
-159.68727054320897, 2.5380447857514477, 22.36361817072044, 163.3991492686132, 49.23416979767916, 62.6340642434331 
-160.60243692954862, 2.379303692903255, 22.36365179032971, 162.69643140369703, 49.15412240440028, 62.63496112994648 
-161.51843436867765, 2.22598145563294, 22.363682207469044, 161.99408568879406, 49.07692296519761, 62.635826507988554 
-162.43524665618875, 2.0781220807090675, 22.363709627348815, 161.29209445365981, 49.00258147136906, 62.63666021612364 
-163.35285601118397, 1.935768185337958, 22.363734250260915, 160.59044046770475, 48.9311075431734, 62.637462099778375 
-164.2712431153737, 1.798960967551125, 22.363756271259447, 159.88910692086645, 48.86251042887257, 62.638232011166586 
-165.19038715438703, 1.6677401770623548, 22.3637758798505, 159.18807740474847, 48.79679900378068, 62.6389698092151 
-166.11026586128014, 1.542144086665841, 22.363793259691473, 158.48733589401056, 48.733981769323194, 62.63967535949154 
-167.03085556222197, 1.4222094642465597, 22.363808588300095, 157.7868667279956, 48.674066852110066, 62.64034853413407 
-167.95213122432983, 1.3079715454732097, 22.36382203677394, 157.08665459257847, 48.617062003026284, 62.64098921178288 
-168.87406650561866, 1.199464007243346, 22.363833769520415, 156.38668450222335, 48.562974596343295, 62.64159727751411 
-169.79663380702272, 1.0967189419490542, 22.363843943997804, 155.68694178223672, 48.51181162885434, 62.642172622775874 
-170.71980432643883, 0.9997668326302187, 22.363852710467636, 154.98741205120203, 48.463579719036815, 62.642715145326875 
-171.64354811473433, 0.9086365290806852, 22.36386021175874, 154.28808120358536, 48.41828510624449, 62.64322474917751 
-172.56783413365517, 0.8233552249708505, 22.36386658304325, 153.58893539249888, 48.37593364993236, 62.6437013445338 
-173.49263031556274, 0.743948436047961, 22.363871951624912, 152.88996101261137, 48.33653082891657, 62.64414484774406 
-174.4179036249207, 0.6704399794730784, 22.363876436739936, 152.1911446831945, 48.30008174067187, 62.644555181248506 
-175.34362012144672, 0.6028519543510362, 22.36388014937068, 151.49247323129413, 48.26659110066893, 62.644932273532135 
-176.26974502483722, 0.5412047235068463, 22.363883192072414, 150.79393367501643, 48.236063241753335, 62.64527605908039 
-177.19624278096728, 0.4855168965589454, 22.363885658813324, 150.09551320691824, 48.20850211356851, 62.64558647833849 
-178.12307712946196, 0.4358053143363809, 22.363887634828153, 149.39719917749235, 48.18391128202405, 62.64586347767378 
-179.05021117252923, 0.39208503468358463, 22.36388919648542, 148.6989790787381, 48.162293928811295, 62.64610700934172 
-179.97760744494067, 0.35436931969266716, 22.363890411168594, 148.00084052780724, 48.14365285096741, 62.64631703145519 
179.09477201496, 0.3226696243992986, 22.36389133717131, 147.3027712507171, 48.12799046048946, 62.646493507957594 
178.16696559334332, 0.29699558697432377, 22.36389202360674, 146.60475906612072, 48.115308783999396, 62.64663640859935 
177.23901202820312, 0.2773550204390847, 22.3638925103313, 145.90679186912644, 48.10560946246113, 62.64674570891813 
176.3109503360185, 0.2637539059280099, 22.363892827882715, 145.20885761515729, 48.09889375095045, 62.64682139022281 
175.38281973790149, 0.25619638751794915, 22.363892997432647, 144.51094430384205, 48.09516251847837, 62.64686343958122 
174.45465958536667, 0.254684768638969, 22.36389303075375, 143.81303996292957, 48.09441624786861, 62.646871849811646 
173.52650928585848, 0.25921951007703287, 22.36389293020149, 143.11513263221732, 48.09665503568932, 62.6468466194779 
172.59840822817526, 0.269799229574229, 22.36389268871045, 142.4172103474868, 48.10187859223944, 62.646787752888656 
171.6703957079274, 0.28642070302774403, 22.363892289805236, 141.71926112443634, 48.110086241589656, 62.64669526009997 
170.74251085316894, 0.3090788672841453, 22.363891707626166, 141.02127294260393, 48.121276921677854, 62.6465691569222 
169.8147925503388, 0.3377668245209009, 22.36389090696931, 140.32323372927053, 48.13544918445874, 62.6464094649303 
168.8872793706491, 0.3724758482025335, 22.36388984334124, 139.62513134333685, 48.15260119610728, 62.64621621147795 
167.96000949705405, 0.4131953905943629, 22.36388846302813, 138.92695355916337, 48.172730737275344, 62.6459894297156 
167.03302065193157, 0.45991309181225104, 22.363886703179205, 138.2286880503668, 48.1958352034007, 62.64572915861195 
166.1063500256066, 0.5126147903826509, 22.363884491904482, 137.53032237356248, 48.22191160506771, 62.64543544297919 
165.18003420584114, 0.5712845352827373, 22.363881748386618, 136.83184395204523, 48.25095656841833, 62.645108333501874 
164.25410910841308, 0.635904599426661, 22.36387838300669, 136.13324005939867, 48.28296633561251, 62.64474788676928 
163.32860990889984, 0.7064554945597895, 22.363874297483807, 135.43449780302439, 48.31793676533638, 62.644354165311135 
162.40357097577953, 0.7829159875191603, 22.363869385028345, 134.73560410758077, 48.3558633333569, 62.64392723763693 
161.47902580495602, 0.8652631178147507, 22.363863530508528, 134.0365456983228, 48.39674113312108, 62.64346717827835 
160.55500695580875, 0.9534722164828004, 22.363856610630272, 133.3373090843319, 48.44056487639808, 62.64297406783502 
159.63154598886243, 1.0475169261592188, 22.36384849412997, 132.63788054162592, 48.48732889396209, 62.64244799302327 
158.70867340516503, 1.147369222318151, 22.363839041979908, 131.9382460961391, 48.537027136313974, 62.64188904672808 
157.78641858745576, 1.2529994356180663, 22.363828107606132, 131.23839150656042, 48.589653174439135, 62.64129732805769 
156.86480974319875, 1.3643762752951816, 22.36381553711851, 130.53830224701943, 48.64520020059937, 62.640672942401174 
155.94387384954968, 1.481466853541807, 22.363801169552534, 129.83796348960826, 48.70366102915582, 62.640016001488576 
155.02363660031673, 1.6042367108051514, 22.363784837122644, 129.13736008672674, 48.76502809742064, 62.63932662345358 
154.1041223549692, 1.7326498419403933, 22.36376636548678, 128.4364765532392, 48.829293466533876, 62.638604932898616 
153.18535408974037, 1.8666687231502617, 22.363745574021635, 127.73529704842946, 48.896448822362984, 62.637851060962106 
152.26735335086283, 2.0062543396421364, 22.363722276108486, 127.03380535774026, 48.96648547642134, 62.63706514538791 
151.35014020996837, 2.151366213932644, 22.363696279429053, 126.33198487428368, 49.039394366802576, 62.63624733059657 
150.4337332216766, 2.3019624347289747, 22.363667386270986, 125.62981858010772, 49.11516605912696, 62.63539776775851 
149.51814938338893, 2.457999686315559, 22.363635393842674, 124.92728902720364, 49.19379074749622, 62.63451661486873 
148.6034040972984, 2.6194332783745846, 22.363600094596954, 124.22437831823868, 49.27525825545274, 62.633604036822895 
147.689511134618, 2.7862171761686443, 22.36356127656318, 123.52106808699743, 49.35955803693927, 62.63266020549478 
146.77648260202406, 2.9583040310139936, 22.3635187236873, 122.8173394785149, 49.44667917725465, 62.631685299814876 
145.86432891030438, 3.1356452109735384, 22.363472216179538, 122.11317312888325, 49.53661039400133, 62.6306795058496 
144.95305874519494, 3.3181908316987667, 22.363421530869015, 121.40854914471383, 49.62934003801997, 62.62964301688153 
144.04267904038272, 3.5058897873512374, 22.363366441565166, 120.70344708223476, 49.724856094306475, 62.6285760334901 
143.1331949526462, 3.6986897815347417, 22.363306719425147, 119.99784592600429, 49.823146182906314, 62.62747876363235 
142.2246098391009, 3.8965373581707525, 22.36324213332694, 119.29172406721841, 49.92419755978137, 62.62635142272428 
141.316925236511, 4.09937793225086, 22.36317245024765, 118.58505928159087, 50.02799711764351, 62.625194233721665 
140.41014084262395, 4.307155820401646, 22.363097435646374, 117.87782870678282, 50.134531386749856, 62.62400742720092 
139.5042544994811, 4.519814271198789, 22.363016853851313, 117.17000881935783, 50.24378653565383, 62.622791241439344 
138.59926217865214, 4.737295495169264, 22.362930468450447, 116.46157541123735, 50.355748371906024, 62.62154592249462 
137.69515796833971, 4.959540694422085, 22.36283804268538, 115.75250356563083, 50.47040234269904, 62.6202717242836 
136.7919340622948, 5.18649009185025, 22.36273933984776, 115.04276763241293, 50.587733535449686, 62.618968908659866 
135.8895807504828, 5.418082959848553, 22.362634123677807, 114.33234120291948, 50.7077266783124, 62.61763774548982 
134.9880864114368, 5.654257648493986, 22.362522158764378, 113.62119708413294, 50.83036614061676, 62.61627851272767 
134.08743750623262, 5.8949516131379, 22.362403210946017, 112.90930727222593, 50.95563593322238, 62.61489149648816 
133.18761857401904, 6.140101441361096, 22.3622770477126, 112.19664292543118, 51.083519708783896, 62.6134769911177 
132.2886122290342, 6.389642879245699, 22.362143438606836, 111.48317433620349, 51.214000761918534, 62.61203529926313 
131.3903991590405, 6.643510856919594, 22.362002155625284, 110.76887090263976, 51.34706202926867, 62.61056673193826 
130.4929581251069, 6.901639513332064, 22.36185297361824, 110.0537010991191, 51.482686089451235, 62.609071608587655 
129.5962659626702, 7.163962220221254, 22.361695670688, 109.33763244612618, 51.62085516288581, 62.607550257147544 
128.7002975838048, 7.430411605236836, 22.36153002858496, 108.62063147921724, 51.76155111149283, 62.60600301410411 
127.80502598063278, 7.700919574183329, 22.361355833101115, 107.90266371708725, 51.904755438252984, 62.60443022454797 
126.91042222980595, 7.975417332352217, 22.361172874460305, 107.18369362869562, 52.050449286618665, 62.60283224222567 
126.01645549799278, 8.25383540491327, 22.360980947704693, 106.46368459940439, 52.19861343976801, 62.601209429587314 
125.12309304830536, 8.536103656337598, 22.36077985307719, 105.7425988960828, 52.349228319691406, 62.599562157830505 
124.23030024760249, 8.822151308827793, 22.36056939639899, 105.02039763112838, 52.502273986100626, 62.5978908069399 
123.33804057460776, 9.111906959732202, 22.36034938944196, 104.29704072535438, 52.65773013514952, 62.59619576572296 
122.44627562878357, 9.405298597923142, 22.360119650295296, 103.57248686968927, 52.81557609795557, 62.594477431840936 
121.5549651399046, 9.70225361912058, 22.359880003725927, 102.84669348563399, 52.975790838910584, 62.5927362118354 
120.66406697827719, 10.002698840145444, 22.359630281532326, 102.11961668441812, 53.13835295376884, 62.590972521149816 
119.77353716555481, 10.306560512088343, 22.359370322891024, 101.39121122479584, 53.30324066750002, 62.58918678414624 
118.88332988610186, 10.613764332381864, 22.35909997469564, 100.66143046941818, 53.47043183189428, 62.58737943411673 
117.99339749886335, 10.924235455766505, 22.35881909188768, 99.93022633971711, 53.639903922905816, 62.58555091328947 
117.10369054970008, 11.237898504142038, 22.35852753777899, 99.19754926923329, 53.81163403772102, 62.5837016728293 
116.21415778415445, 11.554677575298438, 22.358225184365118, 98.46334815531706, 53.98559889153679, 62.58183217283273 
115.32474616061536, 11.874496250521752, 22.35791191262935, 97.72757030912936, 54.16177481403336, 62.57994288231674 
114.43540086385497, 12.19727760107267, 22.357587612836934, 96.99016140386644, 54.34013774552634, 62.57803427920208 
113.54606531891592, 12.522944193536716, 22.3572521848192, 96.25106542112901, 54.52066323278093, 62.576106850289904 
112.65668120533041, 12.851418094047217, 22.35690553824695, 95.51022459535376, 54.70332642447128, 62.5741610912325 
111.76718847165948, 13.18262087138327, 22.356547592893065, 94.76757935622206, 54.888102066266825, 62.57219750649735 
110.87752535034434, 13.51647359894717, 22.3561782788837, 94.02306826895659, 55.07496449552674, 62.57021660932488 
109.98762837286819, 13.852896855626762, 22.355797536937867, 93.27662797241524, 55.26388763558274, 62.568218921679104 
109.09743238523156, 14.191810725550003, 22.355405318595004, 92.5281931148862, 55.45484498958944, 62.56620497419197 
108.20687056374989, 14.533134796740654, 22.355001586430237, 91.77769628748614, 55.6478096339209, 62.56417530610037 
107.31587443118869, 14.876788158685178, 22.354586314257094, 91.02506795505994, 55.84275421109042, 62.56213046517658 
106.42437387325626, 15.222689398822725, 22.354159487317208, 90.27023638447609, 56.03965092216999, 62.560071007651004 
105.53229715548156, 15.57075659797145, 22.35372110245696, 89.51312757020978, 56.23847151868448, 62.557997498128316 
104.63957094050942, 15.920907324705885, 22.3532711682906, 88.75366515710091, 56.43918729395447, 62.55591050949595 
