# MEX_intpoint_lon [deg], MEX_intpoint_lat [deg], MEX_intpoint_angle [deg], TGO_intpoint_lon [deg], TGO_intpoint_lat [deg], TGO_intpoint_angle [deg] 
-104.50509639334162, 20.551226074055666, 22.637217206356894, -168.39233025060963, 59.08019660415358, 62.530533629813924 
-105.40387949457117, 20.167123843021688, 22.637841245233055, -169.18781227906362, 58.85792289861676, 62.53274328611788 
-106.30095603212676, 19.78411174595205, 22.638453873421266, -169.97975897217793, 58.63714793141537, 62.534947245230214 
-107.19642394526096, 19.402281131749685, 22.639054917964504, -170.7682839389175, 58.41790711607779, 62.537144839793854 
-108.09037965499067, 19.02172267138059, 22.63964421972168, -171.553497173895, 58.20023524159819, 62.53933540899283 
-108.98291804094178, 18.642526378293717, 22.64022163338715, -172.33550518139444, 57.98416649078183, 62.54151829873851 
-109.87413241946822, 18.264781627951628, 22.64078702749362, -173.11441109488123, 57.76973445757816, 62.54369286184809 
-110.76411452290671, 17.88857717643774, 22.641340284398336, -173.89031479213995, 57.55697216344968, 62.545858458215385 
-111.65295447983975, 17.514001178107264, 22.641881300252752, -174.66331300618384, 57.34591207282261, 62.548014454974236 
-112.5407407962481, 17.14114120225204, 22.642409984955698, -175.43349943207699, 57.13658610766237, 62.55016022665396 
-113.42756033744449, 16.77008424875042, 22.642926262090178, -176.20096482981066, 56.929025661215746, 62.55229515532719 
-114.31349831068857, 16.400916762676168, 22.643430068843898, -176.9657971233731, 56.72326161095914, 62.55441863075027 
-115.19863824839261, 16.03372464784127, 22.64392135591362, -177.7280814961496, 56.519324330790454, 62.55653005049573 
-116.08306199183617, 15.66859327924964, 22.644400087393727, -178.48790048278775, 56.3172437025004, 62.55862882007736 
-116.96684967531588, 15.305607514440366, 22.64486624064882, -179.24533405765987, 56.11704912655748, 62.560714353067546 
-117.85007971066513, 14.944851703700138, 22.645319806170882, 179.9995402799488, 55.918769532238954, 62.56278607120723 
-118.73282877208626, 14.586409699126708, 22.645760787421004, 179.24664742380017, 55.722433387139, 62.5648434045083 
-119.61517178124548, 14.230364862525844, 22.64618920065608, 178.495914581689, 55.52806870608311, 62.56688579134858 
-120.497181892588, 13.876800072126448, 22.64660507474059, 177.74727119933567, 55.33570305947747, 62.56891267855952 
-121.37893047883912, 13.525797728099032, 22.647008450943765, 177.00064888706993, 55.14536358111948, 62.57092352150645 
-122.26048711666228, 13.17743975686501, 22.64739938272253, 176.255981349194, 54.95707697549548, 62.57291778416199 
-123.14191957245404, 12.831807614184711, 22.647777935490428, 175.51320431591623, 54.77086952458966, 62.57489493917191 
-124.02329378826097, 12.488982287014277, 22.648144186372857, 174.77225547775035, 54.586767094227724, 62.57685446791438 
-124.90467386781077, 12.149044294122158, 22.648498223949, 174.03307442227904, 54.40479513997738, 62.57879586055218 
-125.78612206265572, 11.812073685458062, 22.64884014798084, 173.2956025731834, 54.22497871262676, 62.58071861607801 
-126.66769875843346, 11.478150040268218, 22.649170069129486, 172.55978313144425, 54.0473424632613, 62.58262224235348 
-127.54946246125479, 11.147352463952327, 22.649488108659373, 171.8255610186234, 53.871910647958224, 62.58450625614117 
-128.4314697842352, 10.819759583659406, 22.649794398130627, 171.0928828221375, 53.69870713211711, 62.58637018313053 
-129.31377543419148, 10.495449542620923, 22.650089079080047, 170.3616967424396, 53.527755394444526, 62.588213557957644 
-130.19643219853063, 10.174499993221607, 22.65037230269116, 169.63195254202648, 53.35907853060942, 62.59003592421854 
-131.0794909323631, 9.856988088809677, 22.65064422945372, 168.903601496194, 53.192699256585634, 62.59183683447682 
-131.96300054587772, 9.542990474250441, 22.650905028813174, 168.17659634546428, 53.02863991169705, 62.59361585026542 
-132.84700799202048, 9.23258327522847, 22.65115487881057, 167.4508912496126, 52.86692246138035, 62.595372542082664 
-133.7315582545235, 8.925842086306059, 22.65139396571334, 166.72644174322386, 52.70756849967966, 62.59710648938297 
-134.61669433633503, 8.622841957747255, 22.651622483637457, 166.00320469271185, 52.55059925148672, 62.598817280562216 
-135.50245724850654, 8.323657381118863, 22.651840634161506, 165.28113825473665, 52.39603557453995, 62.60050451293788 
-136.3888859995947, 8.028362273682054, 22.65204862593318, 164.56020183595862, 52.24389796119489, 62.602167792724444 
-137.2760175856418, 7.7370299615904035, 22.652246674268625, 163.84035605406913, 52.09420653997836, 62.603806735003886 
-138.1638869808009, 7.449733161912274, 22.65243500074535, 163.12156270004138, 51.94698107693787, 62.60542096369179 
-139.0525271286747, 7.166543963497929, 22.652613832789037, 162.40378470154636, 51.80224097679771, 62.6070101114988 
-139.94196893444024, 6.887533806714283, 22.65278340325497, 161.68698608748164, 51.66000528393247, 62.6085738198883 
-140.83224125783528, 6.6127734620722665, 22.65294395000448, 160.97113195356226, 51.52029268316845, 62.61011173902975 
-141.7233709070823, 6.342333007774826, 22.65309571547715, 160.25618842892567, 51.38312150042302, 62.61162352774853 
-142.6153826338301, 6.076281806215688, 22.6532389462591, 159.5421226437044, 51.248509703191814, 62.6131088534721 
-143.50829912919357, 5.814688479461939, 22.65337389264822, 158.82890269752153, 51.11647490089265, 62.61456739217285 
-144.40214102097363, 5.557620883755947, 22.65350080821661, 158.11649762886682, 50.9870343450759, 62.615998828307774 
-145.29692687214063, 5.305146083075032, 22.653619949371077, 157.40487738531263, 50.86020492950937, 62.61740285475527 
-146.1926731806644, 5.057330321789813, 22.653731574912083, 156.69401279452984, 50.73600319014653, 62.618779172749186 
-147.08939438077508, 4.8142389964649634, 22.65383594559183, 155.98387553606685, 50.61444530498607, 62.62012749181041 
-147.98710284573812, 4.575936626848945, 22.653933323672003, 155.27443811385533, 50.49554709383065, 62.621447529676075 
-148.88580889222618, 4.342486826101754, 22.654023972481728, 154.56567382940827, 50.37932401795246, 62.6227390122268 
-149.78552078636997, 4.113952270312764, 22.654108155976537, 153.85755675567714, 50.26579117967295, 62.624001673412025 
-150.68624475156804, 3.8903946673630165, 22.654186138298545, 153.15006171153647, 50.1549633218638, 62.625235255173735 
-151.58798497813396, 3.6718747251893227, 22.654258183338808, 152.4431642368659, 50.046854827375924, 62.6264395073687 
-152.49074363485695, 3.458452119509803, 22.654324554302164, 151.7368405681997, 49.94147971840333, 62.62761418768951 
-153.39452088254865, 3.2501854610731344, 22.654385513275273, 151.03106761491654, 49.83885165578811, 62.628759061584724 
-154.2993148896461, 3.047132262496175, 22.65444132079837, 150.32582293594277, 49.73898393827271, 62.629873902178026 
-155.20512184993675, 2.849348904756793, 22.654492235441328, 149.621084716943, 49.64188950170564, 62.630958490187005 
-156.11193600246756, 2.656890603411106, 22.654538513384516, 148.91683174797413, 49.54758091820631, 62.63201261384143 
-157.01974965369456, 2.4698113746062664, 22.654580408005152, 148.21304340157874, 49.45607039529462, 62.63303606880141 
-157.92855320192595, 2.2881640009617534, 22.654618169469526, 147.50969961129564, 49.36736977499069, 62.63402865807558 
-158.83833516410408, 2.1119999973941033, 22.654652044331748, 146.80678085056576, 49.28149053289004, 62.634990191939565 
-159.7490822049679, 1.9413695769612354, 22.65468227513949, 146.10426811201265, 49.198443777219076, 62.6359204878548 
-160.66077916862957, 1.7763216168042169, 22.654709100047306, 145.40214288707784, 49.11824024787599, 62.63681937038805 
-161.57340911259274, 1.616903624265258, 22.65473275243797, 144.700387145992, 49.04089031546147, 62.63768667113171 
-162.48695334423303, 1.4631617032616904, 22.654753460552374, 143.9989833180635, 48.96640398030407, 62.63852222862517 
-163.40139145975417, 1.3151405209964901, 22.654771447128464, 143.2979142722669, 48.89479087148421, 62.6393258882773 
-164.31670138562484, 1.1728832750861549, 22.65478692904972, 142.59716329811445, 48.82606024586128, 62.64009750229024 
-165.23285942249396, 1.0364316611872504, 22.65480011700358, 141.89671408679484, 48.76022098710768, 62.64083692958508 
-166.1498402915735, 0.905825841202511, 22.654811215150332, 141.19655071256318, 48.69728160475373, 62.64154403572869 
-167.06761718347056, 0.7811044121473846, 22.654820420802853, 140.49665761436762, 48.637250233247016, 62.64221869286296 
-167.9861618094403, 0.6623043757569798, 22.65482792411768, 139.79701957769817, 48.58013463102982, 62.642860779635775 
-168.90544445502462, 0.549461108912744, 22.65483390779778, 139.09762171664403, 48.52594217963789, 62.6434701811342 
-169.8254340360314, 0.4426083349667393, 22.65483854680743, 138.39844945614624, 48.474679882823715, 62.64404678882007 
-170.74609815680085, 0.3417780960401684, 22.654842008099514, 137.69948851443257, 48.42635436570751, 62.64459050046815 
-171.66740317069767, 0.24700072637064235, 22.654844450355817, 137.00072488562284, 48.38097187395855, 62.64510122010656 
-172.58931424275787, 0.15830482678102606, 22.654846023740323, 136.3021448224922, 48.33853827300976, 62.64557885796048 
-173.51179541441147, 0.07571724033994745, 22.65484686966615, 135.60373481938157, 48.29905904730799, 62.6460233303981 
-174.43480967019443, -0.0007369707184076343, 22.654847120576317, 134.90548159524354, 48.26253929960248, 62.64643455988003 
-175.35831900635407, -0.07103454675060207, 22.654846899738548, 134.20737207681356, 48.2289837502736, 62.646812474911606 
-176.2822845012456, -0.13515405107491663, 22.654846321054528, 133.50939338189534, 48.19839673670423, 62.647157009998445 
-177.20666638740948, -0.1930758888991574, 22.654845488883794, 132.81153280275103, 48.17078221269532, 62.647468105605064 
-178.13142412521213, -0.24478232475103304, 22.654844497882504, 132.11377778958607, 48.14614374792776, 62.647745708117306 
-179.05651647792664, -0.29025749836097936, 22.654843432857287, 131.41611593411895, 48.12448452747197, 62.6479897698078 
-179.98190158812363, -0.3294874389513616, 22.654842368634394, 130.7185349532267, 48.10580735134671, 62.64820024880515 
179.09246294476384, -0.36246007789054, 22.654841369944318, 130.0210226726573, 48.09011463412843, 62.64837710906666 
178.16661998584095, -0.38916525967473, 22.65484049132199, 129.32356701079917, 48.07740840461228, 62.64852032035475 
177.2406127852632, -0.40959475120547933, 22.65483977702281, 128.62615596249984, 48.06769030552578, 62.648629858217014 
176.31448489800826, -0.423742249335412, 22.654839260954414, 127.92877758292481, 48.060961593296, 62.64870570397016 
175.38828010305994, -0.4316033866599655, 22.65483896662452, 127.23141997144762, 48.05722313787077, 62.64874784468739 
174.46204232215888, -0.43317573553799543, 22.654838907104693, 126.53407125556322, 48.05647542259477, 62.64875627318997 
173.53581553827675, -0.42845881032931526, 22.65483908501027, 125.83671957481606, 48.058718544140355, 62.64873098804239 
172.6096437139715, -0.4174540678425176, 22.65483949249628, 125.13935306473425, 48.063952212493845, 62.648671993551396 
171.68357070978254, -0.40016490599179744, 22.65484011126957, 124.44195984076177, 48.07217575099694, 62.64857929976896 
170.7576402028233, -0.37659666066674785, 22.654840912616915, 123.74452798218017, 48.08338809644323, 62.64845292249876 
169.83189560572924, -0.34675660082432197, 22.6548418574493, 123.04704551601148, 48.09758779922974, 62.648292883306915 
168.9063799861165, -0.3106539218176817, 22.65484289636203, 122.34950040089367, 48.11477302356262, 62.64809920953613 
167.98113598670503, -0.2682997369814365, 22.6548439697109, 121.65188051092045, 48.13494154771701, 62.64787193432382 
167.0562057462566, -0.21970706749828678, 22.6548450077041, 120.95417361943647, 48.158090764349666, 62.64761109662384 
166.1316308214749, -0.1648908305767031, 22.654845930509783, 120.25636738277946, 48.18421768086401, 62.64731674123194 
165.20745211001014, -0.10386782597439884, 22.654846648379237, 119.55844932396018, 48.21331891982611, 62.64698891881485 
164.28370977470695, -0.03665672090680267, 22.65484706178542, 118.86040681627131, 48.24539071943075, 62.64662768594283 
163.36044316922784, 0.0367219666155033, 22.65484706157661, 118.1622270668159, 48.28042893401582, 62.646233105125916 
162.4376907651787, 0.11624588597246252, 22.654846529145168, 117.46389709994604, 48.31842903462384, 62.64580524485322 
161.5154900808581, 0.20189087359090407, 22.654845336610986, 116.76540374060194, 48.35938610960872, 62.645344179636055 
160.59387761174258, 0.2936309740156707, 22.654843347019455, 116.06673359754159, 48.40329486528595, 62.64484999005382 
159.67288876281603, 0.39143846233573304, 22.654840414553746, 115.36787304645051, 48.45014962662428, 62.644322762803334 
158.75255778284065, 0.49528386790231677, 22.654836384760983, 114.66880821292133, 48.499944337976586, 62.643762590751024 
157.83291770066185, 0.6051359992728562, 22.65483109479218, 113.969524955292, 48.55267256384784, 62.643169572988235 
156.9140002636296, 0.7209619703118526, 22.65482437365545, 113.27000884733164, 48.60832748969739, 62.64254381488905 
155.9958358782107, 0.8427272273771949, 22.654816042482327, 112.5702451607621, 48.666901922773185, 62.64188542817107 
155.07845355285883, 0.9703955775182348, 22.654805914806634, 111.87021884760335, 48.72838829297505, 62.64119453095868 
154.16188084319964, 1.1039292176099618, 22.654793796855778, 111.16991452233002, 48.792778653743966, 62.64047124784852 
153.24614379957956, 1.2432887643459978, 22.654779487853844, 110.46931644382619, 48.86006468297446, 62.63971570997742 
152.33126691701966, 1.3884332850118524, 22.654762780336227, 109.76840849712488, 48.93023768394664, 62.63892805509243 
151.41727308760514, 1.5393203289586437, 22.654743460475448, 109.06717417491816, 49.00328858627443, 62.638108427622726 
150.5041835553344, 1.6959059596968746, 22.654721308417454, 108.36559655882347, 49.079207946866674, 62.63725697875333 
149.59201787344236, 1.8581447875294006, 22.65469609862826, 107.66365830039065, 49.15798595089699, 62.63637386650054 
148.6807938642039, 2.0259900026423345, 22.654667600250345, 106.96134160183395, 49.23961241277874, 62.63545925578869 
147.7705275812169, 2.1993934085729205, 22.654635577468227, 106.25862819647281, 49.32407677714092, 62.634513318528334 
146.86123327415498, 2.378305455973514, 22.65459978988295, 105.55549932886406, 49.41136811980058, 62.633536233695295 
145.95292335597284, 2.5626752765917056, 22.654559992894786, 104.85193573460717, 49.5014751487277, 62.63252818741098 
145.04560837254093, 2.752450717386993, 22.65451593809383, 104.14791761980489, 49.59438620499749, 62.63148937302309 
144.13929697467768, 2.947578374705922, 22.65446737365775, 103.44342464015891, 49.69008926372577, 62.63041999118699 
143.23399589254248, 3.1480036284384947, 22.654414044756372, 102.73843587968074, 49.78857193498211, 62.62932024994756 
142.32970991234558, 3.353670676080409, 22.654355693962536, 102.03292982899636, 49.889821464675805, 62.628190364820874 
141.42644185532535, 3.5645225666270326, 22.65429206166848, 101.32688436322294, 49.993824735409426, 62.6270305588761 
140.52419255893898, 3.780501234227167, 22.654222886507476, 100.62027671939403, 50.100568267294214, 62.62584106281696 
139.62296086020638, 4.001547531526292, 22.654147905779997, 99.91308347340973, 50.21003821872178, 62.62462211506289 
138.72274358114362, 4.227601262631382, 22.6540668558839, 99.20528051648633, 50.32222038708635, 62.62337396182923 
137.82353551621839, 4.45860121563144, 22.653979472748027, 98.49684303107955, 50.43710020945101, 62.62209685720682 
136.92532942175535, 4.694485194610283, 22.6538854922687, 97.78774546625387, 50.55466276315219, 62.62079106324034 
136.02811600721722, 4.935190051090676, 22.65378465074853, 97.0779615124694, 50.67489276633544, 62.61945685000527 
135.13188392828448, 5.180651714851239, 22.653676685336883, 96.36746407575676, 50.79777457841602, 62.61809449568355 
134.23661978165407, 5.430805224060324, 22.653561334471554, 95.65622525124873, 50.92329220045708, 62.61670428663718 
133.3423081014763, 5.685584754673555, 22.65343833832094, 94.94421629603637, 51.05142927545854, 62.61528651748007 
132.44893135734728, 5.944923649044618, 22.653307439226193, 94.23140760131572, 51.182169088548804, 62.61384149114775 
131.55646995377404, 6.208754443701279, 22.653168382142816, 93.51776866379002, 51.31549456707192, 62.612369518964364 
130.66490223102818, 6.477008896241751, 22.653020915080987, 92.80326805629026, 51.45138828056205, 62.61087092070758 
129.77420446730463, 6.749618011308778, 22.65286478954416, 92.0878733975763, 51.5898324405969, 62.60934602467006 
128.88435088210215, 7.026512065602072, 22.652699760965326, 91.37155132127786, 51.73080890052172, 62.60779516771849 
127.9953136407429, 7.307620631891868, 22.652525589140293, 90.65426744393403, 51.87429915503485, 62.60621869534887 
127.10706285994954, 7.592872601999512, 22.652342038657526, 89.93598633208782, 52.020284339625675, 62.60461696173881 
126.21956661439978, 7.882196208713452, 22.6521488793239, 89.21667146838986, 52.16874522985549, 62.6029903297957 
125.33279094418064, 8.175519046611406, 22.651945886585818, 88.49628521666455, 52.319662240471196, 62.60133917120136 
124.44669986306539, 8.472768091762513, 22.651732841945172, 87.77478878588875, 52.47301542434201, 62.599663866452474 
123.56125536754088, 8.773869720285212, 22.65150953336955, 87.05214219303193, 52.628784471207936, 62.597964804896854 
122.67641744651294, 9.078749725739478, 22.651275755696158, 86.32830422470391, 52.78694870622952, 62.59624238476515 
121.79214409162331, 9.387333335334075, 22.651031311028994, 85.60323239755458, 52.947487088327, 62.59449701319783 
120.90839130811278, 9.699545224932129, 22.65077600912861, 84.87688291736698, 53.11037820829709, 62.592729106267676 
120.02511312616979, 10.015309532840082, 22.650509667794072, 84.14921063678374, 53.27560028669501, 62.590939088996755 
119.14226161270747, 10.334549872367852, 22.650232113236523, 83.420169011603, 53.443131171468735, 62.58912739536863 
118.259786883516, 10.657189343149529, 22.649943180443945, 82.68971005557873, 53.61294833533207, 62.58729446833491 
117.37763711574127, 10.983150541216242, 22.649642713536494, 81.95778429365666, 53.7850288728625, 62.585440759816315 
116.49575856064571, 11.312355567814919, 22.649330566112095, 81.22434071357475, 53.95934949730927, 62.58356673069813 
115.61409555661156, 11.644726036968017, 22.649006601581718, 80.48932671575419, 54.13588653709642, 62.58167285081967 
114.73259054235184, 11.980183081771763, 22.6486706934939, 79.75268806140382, 54.31461593200484, 62.57975959895769 
113.85118407029941, 12.31864735943154, 22.64832272584815, 79.01436881875831, 54.49551322901689, 62.57782746280379 
112.96981482014944, 12.660039055035254, 22.647962593396695, 78.27431130736633, 54.67855357780604, 62.57587693893522 
112.08841961253711, 13.004277884066665, 22.647590201934293, 77.5324560403433, 54.8637117258536, 62.573908532779534 
111.20693342283616, 13.351283093662763, 22.64720546857554, 76.78874166449808, 55.05096201317357, 62.571922758572335 
110.32528939507185, 13.700973462620095, 22.64680832201956, 76.04310489824171, 55.24027836662577, 62.5699201393086 
109.44341885594643, 14.053267300157048, 22.646398702801367, 75.29548046718133, 55.43163429379647, 62.56790120668697 
108.5612513289818, 14.408082443440264, 22.645976563529857, 74.54580103729938, 55.625002876424894, 62.56586650104716 
107.67871454879071, 14.765336253884547, 22.645541869111927, 73.7939971456155, 55.82035676335295, 62.56381657130038 
106.79573447549417, 15.124945612237502, 22.645094596962462, 73.03999712822356, 56.01766816297416, 62.561751974852484 
105.91223530930951, 15.486826912460959, 22.64463473719985, 72.28372704559433, 56.21690883515706, 62.559673277520055 
105.0281395053403, 15.850896054423123, 22.644162292826824, 71.52511060502917, 56.41805008261668, 62.557581053438994 
