# MEX_intpoint_lon [deg], MEX_intpoint_lat [deg], MEX_intpoint_angle [deg], TGO_intpoint_lon [deg], TGO_intpoint_lat [deg], TGO_intpoint_angle [deg] 
-104.4768383122909, 20.544820620370942, 22.620012857420228, -167.34587306147554, 59.09570343093079, 62.53019493163129 
-105.37615459336384, 20.161600675356244, 22.62063479305038, -168.14222629415397, 58.873897329160656, 62.53239925390274 
-106.27376481569377, 19.77946585161931, 22.621245378546767, -168.9350371439068, 58.65358470832407, 62.53459790641956 
-107.16976655129666, 19.39850740854241, 22.62184444150136, -169.72441920045017, 58.43480100308601, 62.53679022340845 
-108.06425586540065, 19.018815928313945, 22.62243182324863, -170.51048244872302, 58.217581022378134, 62.538975545604785 
-108.95732729296769, 18.64048133613563, 22.623007378885102, -171.2933333921517, 58.00195896775246, 62.541153220438424 
-109.84907381650106, 18.263592919550614, 22.623570977272255, -172.07307517145776, 57.78796845072558, 62.54332260221186 
-110.73958684500022, 17.888239346857848, 22.62412250102298, -172.84980767914578, 57.57564250916112, 62.54548305227079 
-111.62895619393676, 17.514508684580008, 22.624661846471536, -173.62362766981227, 57.36501362273591, 62.54763393916709 
-112.51727006613234, 17.142488413954663, 22.62518892362695, -174.3946288664118, 57.156113727533196, 62.54977463881418 
-113.40461503343128, 16.772265446419887, 22.6257036561104, -175.16290206262022, 56.94897422980385, 62.55190453463462 
-114.29107601906787, 16.403926138068027, 22.626205981076147, -175.92853522142943, 56.74362601893542, 62.554023017700366 
-115.17673628063805, 16.037556303042393, 22.626695849116643, -176.6916135701093, 56.540099479665884, 62.556129486865 
-116.06167739359407, 15.673241225853738, 22.62717322415163, -177.45221969166792, 56.338424503578054, 62.55822334888886 
-116.94597923518795, 15.311065672595017, 22.627638083301644, -178.2104336129402, 56.13863049990859, 62.5603040185563 
-117.82971996879935, 14.951113901033986, 22.628090416745984, -178.966332889431, 55.94074640570384, 62.56237091878567 
-118.7129760285893, 14.593469669565364, 22.628530227565424, -179.7199926870371, 55.74480069535349, 62.56442348073158 
-119.5958221044312, 14.238216245004942, 22.62895753156987, 179.5285141392322, 55.55082138953128, 62.56646114388012 
-120.47833112707558, 13.885436409210163, 22.629372357111293, 178.7791169694183, 55.3588360635709, 62.56848335613654 
-121.3605742535146, 13.535212464512446, 22.629774744882088, 178.03174734554636, 55.16887185530371, 62.570489573905775 
-122.24262085251718, 13.18762623794844, 22.63016474769922, 177.28633890121773, 54.98095547238384, 62.57247926216572 
-123.12453849031459, 12.842759084278246, 22.630542430274524, 176.54282729375498, 54.79511319912483, 62.574451894533716 
-124.00639291642058, 12.5006918877806, 22.63090786897132, 175.80115013879555, 54.611370902871165, 62.576406953325616 
-124.88824804957916, 12.161505062815761, 22.63126115154784, 175.06124694723374, 54.429754039926834, 62.57834392960849 
-125.7701659638371, 11.825278553148891, 22.63160237688774, 174.32305906441474, 54.250287661061876, 62.58026232324625 
-126.65220687474584, 11.492091830027755, 22.63193165471811, 173.58652961148633, 54.07299641661743, 62.58216164293868 
-127.53442912570263, 11.162023889010158, 22.63224910531525, 172.8516034288187, 53.89790456122839, 62.584041406254244 
-128.41688917444657, 10.835153245538192, 22.632554859198866, 172.11822702140503, 53.72503595818217, 62.585901139656094 
-129.29964157973103, 10.511557929257831, 22.632849056814784, 171.38634850615927, 53.55441408343144, 62.587740378522334 
-130.18273898819876, 10.19131547708408, 22.63313184820688, 170.65591756102995, 53.38606202927744, 62.589558667159686 
-131.06623212149185, 9.874502925013548, 22.633403392678485, 169.92688537585278, 53.22000250774039, 62.59135555881171 
-131.95016976363254, 9.561196798688304, 22.633663858443843, 169.19920460486668, 53.05625785363242, 62.59313061566092 
-132.83459874871747, 9.251473102716263, 22.63391342226999, 168.47282932082197, 52.89485002734781, 62.59488340882544 
-133.71956394897012, 8.945407308755755, 22.634152269109606, 167.7477149706108, 52.73580061738499, 62.59661351835023 
-134.6051082632029, 8.643074342373579, 22.634380591725332, 167.02381833235376, 52.5791308426139, 62.59832053319289 
-135.49127260574286, 8.34454856868789, 22.634598590305895, 166.30109747387885, 52.42486155430199, 62.60000405120454 
-136.37809589587968, 8.049903776809566, 22.63480647207491, 165.57951171253092, 52.27301323791129, 62.601663679105734 
-137.26561504789794, 7.759213163097824, 22.635004450892378, 164.85902157625313, 52.123606014679005, 62.60329903245761 
-138.15386496175907, 7.472549313247933, 22.63519274684986, 164.13958876588353, 51.97665964299313, 62.604909735628425 
-139.04287851450212, 7.189984183231399, 22.635371585859627, 163.4211761186126, 51.83219351957437, 62.6064954217561 
-139.93268655243418, 6.911589079111443, 22.63554119923836, 162.70374757254933, 51.69022668047525, 62.608055732706 
-140.8233178841852, 6.637434635758682, 22.635701823286006, 161.98726813234578, 51.550777801906804, 62.60959031902546 
-141.71479927470315, 6.367590794494913, 22.63585369886029, 161.27170383583262, 51.413865200902954, 62.61109883989393 
-142.60715544026823, 6.102126779695104, 22.635997070947443, 160.55702172161898, 51.2795068358322, 62.61258096307012 
-143.50040904460596, 5.8411110743804135, 22.636132188229816, 159.84318979761235, 51.1477203067661, 62.61403636483538 
-144.3945806961802, 5.584611394837737, 22.636259302650764, 159.13017701041653, 51.01852285571333, 62.61546472993417 
-145.28968894674878, 5.332694664303942, 22.63637866897756, 158.41795321556708, 50.89193136672841, 62.61686575151162 
-146.18575029126387, 5.085426985755619, 22.636490544362815, 157.70648914856466, 50.76796236590307, 62.618239131048156 
-147.08277916920065, 4.84287361384784, 22.636595187904934, 156.99575639666926, 50.64663202124875, 62.61958457829207 
-147.98078796739622, 4.605098926048301, 22.636692860208402, 156.28572737141974, 50.527956142477905, 62.62090181118933 
-148.87978702448135, 4.372166393015644, 22.636783822944157, 155.57637528184372, 50.41195018069163, 62.62219055581148 
-149.77978463698528, 4.144138548273787, 22.636868338410913, 154.86767410832542, 50.29862922798126, 62.62345054628204 
-150.6807870671943, 3.921076957236325, 22.636946669097906, 154.1595985770995, 50.1880080169506, 62.62468152470062 
-151.5827985528393, 3.703042185638103, 22.637019077249562, 153.45212413534097, 50.080100920165926, 62.6258832410661 
-152.48582131869006, 3.4900937674331765, 22.637085824432813, 152.74522692682189, 49.974921949540445, 62.6270554531985 
-153.38985559012613, 3.2822901722212148, 22.63714717110747, 152.03888376810727, 49.87248475565927, 62.62819792665969 
-154.29489960875486, 3.0796887722664916, 22.63720337620039, 151.33307212526324, 49.77280262705158, 62.6293104346734 
-155.20094965014079, 2.8823458091760377, 22.63725469668386, 150.62777009105258, 49.67588848941545, 62.63039275804475 
-156.10800004370785, 2.6903163603056597, 22.637301387158796, 149.92295636259217, 49.58175490480157, 62.631444685079174 
-157.0160431948708, 2.5036543049645363, 22.637343699443317, 149.21861021944972, 49.490414070761254, 62.63246601150142 
-157.9250696094467, 2.3224122904909428, 22.637381882167315, 148.51471150215718, 49.40187781946402, 62.633456540374404 
-158.83506792039276, 2.1466416982734677, 22.63741618037333, 147.81124059111878, 49.316157616790285, 62.63441608201842 
-159.74602491691059, 1.9763926097935276, 22.637446835124564, 147.10817838589364, 49.233264561403836, 62.6353444539305 
-160.6579255759499, 1.811713772766295, 22.637474083120242, 146.40550628483254, 49.153209383809184, 62.63624148070487 
-161.5707530961393, 1.652652567458527, 22.637498156319133, 145.70320616505055, 49.076002445398416, 62.63710699395376 
-162.4844889341637, 1.499254973262347, 22.63751928157143, 145.00126036271658, 49.001653737491985, 62.63794083222942 
-163.3991128436017, 1.3515655356050282, 22.63753768025971, 144.299651653643, 48.93017288037785, 62.638742840947444 
-164.3146029162275, 1.2096273332750447, 22.637553567949354, 143.59836323415783, 48.86156912235302, 62.639512872310924 
-165.2309356257747, 1.0734819462450802, 22.637567154048856, 142.89737870224414, 48.79585133877169, 62.64025078523694 
-166.1480858741514, 0.9431694240723445, 22.637578641480538, 142.19668203893076, 48.733028031103615, 62.64095644528388 
-167.06602704008765, 0.8187282549564109, 22.637588226362087, 141.4962575899194, 48.67310732600641, 62.641629724581335 
-167.98473103018705, 0.7001953355340557, 22.637596097699316, 140.7960900474339, 48.61609697441548, 62.64227050176155 
-168.9041683323475, 0.5876059414897629, 22.63760243709057, 140.09616443227824, 48.56200435065458, 62.642878661893256 
-169.82430807150578, 0.4809936990591725, 22.637607418443203, 139.39646607608967, 48.510836451570604, 62.64345409641771 
-170.74511806765315, 0.38039055750154727, 22.637611207702363, 138.6969806037741, 48.462599895695234, 62.64399670308723 
-171.66656489606032, 0.28582676261520706, 22.63761396259272, 137.99769391611196, 48.41730092243661, 62.64450638590643 
-172.58861394964163, 0.1973308313681681, 22.637615832373168, 137.29859217252226, 48.37494539130352, 62.64498305507594 
-173.51122950337984, 0.11492952771354234, 22.637616957605015, 136.5996617739736, 48.33553878116489, 62.645426626939134 
-174.43437478072508, 0.038647839656758075, 22.63761746993395, 135.90088934603077, 48.29908618954669, 62.64583702393181 
-175.3580120218737, -0.03149104236123942, 22.637617491886022, 135.2022617220267, 48.26559233196874, 62.64621417453481 
-176.28210255382407, -0.0954657457039375, 22.63761713667794, 134.5037659263489, 48.235061541323375, 62.64655801322995 
-177.2066068621011, -0.15325673434490314, 22.637616508041887, 133.80538915783038, 48.20749776729787, 62.646868480459126 
-178.13148466403192, -0.20484632618539045, 22.63761570006527, 133.1071187732355, 48.18290457584251, 62.64714552258677 
-179.0566949834505, -0.2502187088341156, 22.637614797045316, 132.4089422708308, 48.161285148685685, 62.647389091865755 
-179.98219622670263, -0.28935995380356266, 22.637613873358966, 131.7108472740316, 48.14264228289788, 62.647599146406755 
179.09205374018455, -0.3222580290815822, 22.637612993348114, 131.01282151511543, 48.12697839050533, 62.6477756501512 
178.1660975133061, -0.3489028100415855, 22.637612211220407, 130.3148528189929, 48.11429549815485, 62.647918572847985 
177.23997807180157, -0.36928608865939155, 22.637611570965667, 129.61692908702753, 48.10459524683072, 62.648027890033475 
176.31373869804253, -0.38340158100955174, 22.63761110628811, 128.9190382808957, 48.097878891624454, 62.64810358301557 
175.3874228972368, -0.3912449330191797, 22.637610840554416, 128.2211684064783, 48.09414730155801, 62.64814563886147 
174.4610743166032, -0.3928137244621776, 22.637610786757755, 127.5233074977753, 48.09340095946123, 62.648154050389046 
173.53473666427138, -0.3881074711820933, 22.637610947497762, 126.82544360083511, 48.09563996190347, 62.64812881616206 
172.60845362806398, -0.3771276255370294, 22.637611314976535, 126.12756475769014, 48.100864019179994, 62.64806994048938 
171.6822687943184, -0.3598775750652566, 22.637611871010655, 125.42965899029033, 48.10907245535295, 62.647977433427606 
170.75622556690422, -0.3363626393755498, 22.637612587059152, 124.7317142844263, 48.12026420834687, 62.647851310787935 
169.83036708659364, -0.30659006527129773, 22.637613424267542, 124.03371857363331, 48.13443783009836, 62.64769159414641 
168.9047361509381, -0.27056902012304684, 22.63761433352764, 123.33565972306819, 48.15159148675976, 62.64749831085817 
167.9793751348046, -0.22831058350879396, 22.637615255553232, 122.63752551335043, 48.17172295895587, 62.64727149407535 
167.05432591172035, -0.17982773714678926, 22.637616120971526, 121.93930362435844, 48.1948296420932, 62.647011182768814 
166.12962977617218, -0.12513535315034535, 22.637616850430113, 121.24098161897294, 48.22090854672085, 62.64671742175307 
165.20532736700187, -0.06425018063899511, 22.63761735471949, 120.54254692675806, 48.24995629894189, 62.6463902617155 
164.28145859203516, 0.0028091692549682755, 22.637617534910746, 119.8439868275712, 48.28196914087389, 62.64602975924844 
163.35806255407576, 0.07602223994114929, 22.637617282508433, 119.14528843509264, 48.3169429311577, 62.64563597688513 
162.4351774783902, 0.1553667474391635, 22.637616479618387, 118.44643868026498, 48.35487314551223, 62.64520898313892 
161.51284064180362, 0.24081859990840004, 22.637614999130125, 117.74742429463318, 48.39575487733423, 62.64474885254579 
160.59108830351929, 0.3323519185837619, 22.637612704913757, 117.04823179357506, 48.43958283834078, 62.64425566571002 
159.6699556377672, 0.4299390600583245, 22.637609452031068, 116.34884745941174, 48.48635135925274, 62.64372950935314 
158.74947666838116, 0.5335506398501841, 22.637605086960438, 115.649257324388, 48.53605439051679, 62.64317047636568 
157.82968420539368, 0.6431555571880148, 22.637599447835484, 114.94944715351116, 48.588685503063935, 62.642578665862025 
156.91060978373233, 0.7587210209469019, 22.63759236469685, 114.24940242723731, 48.64423788910189, 62.641954183237786 
155.99228360409117, 0.8802125766635167, 22.637583659757006, 113.54910832399378, 48.70270436293876, 62.641297140230186 
155.0747344760434, 1.0075941345575568, 22.63757314767768, 112.84854970252474, 48.764077361835206, 62.64060765498056 
154.15798976345266, 1.1408279984843457, 22.637560635859423, 112.14771108404842, 48.828348946882166, 62.63988585209963 
153.24207533223182, 1.2798748957419301, 22.63754592474312, 111.44657663421246, 48.895510803901, 62.639131862734686 
152.3270155004894, 1.4246940076546244, 22.63752880812287, 110.74513014483381, 48.965554244362785, 62.638345824639096 
151.41283299109566, 1.5752430008539364, 22.637509073469907, 110.04335501540955, 49.03847020632346, 62.637527882243596 
150.4995488866909, 1.7314780591769052, 22.63748650226717, 109.34123423438372, 49.114249255371064, 62.636678186729505 
149.58718258715206, 1.8933539161016952, 22.637460870353962, 108.63875036015523, 49.19288158558129, 62.63579689610345 
148.67575176952306, 2.0608238876397125, 22.63743194828036, 107.93588550181066, 49.27435702047777, 62.634884175273406 
147.76527235040865, 2.233839905603847, 22.63739950167081, 107.23262129956612, 49.35866501399254, 62.63394019612639 
146.85575845082232, 2.412352551172614, 22.637363291596518, 106.52893890490056, 49.44579465142285, 62.632965137606845 
145.94722236347184, 2.596311088670686, 22.63732307495606, 105.82481896036262, 49.53573465037958, 62.63195918579601 
145.0396745224594, 2.7856634994867955, 22.637278604863763, 105.12024157903302, 49.62847336172296, 62.630922533992326 
144.13312347536487, 2.980356516051518, 22.637229631045336, 104.41518632362222, 49.72399877048058, 62.62985538279171 
143.22757585767678, 3.1803356557981686, 22.637175900240166, 103.70963218518389, 49.822298496742874, 62.628757940169 
142.32303636952665, 3.3855452550318024, 22.637117156609897, 103.00355756142261, 49.92335979653106, 62.627630421558784 
141.41950775467924, 3.59592850263289, 22.637053142152546, 102.29694023457392, 50.02716956263188, 62.62647304993651 
140.5169907817237, 3.811427473523964, 22.636983597121805, 101.5897573488338, 50.133714325394116, 62.62528605589934 
139.61548422740825, 4.031983161829451, 22.63690826045079, 100.88198538731366, 50.24298025348076, 62.62406967774638 
138.71498486205357, 4.257535513661196, 22.63682687017995, 100.17360014849554, 50.354953154571234, 62.62282416155839 
137.81548743697954, 4.488023459464169, 22.63673916388817, 99.46457672216192, 50.4696184760075, 62.62154976127631 
136.91698467387326, 4.723384945859225, 22.63664487912694, 98.75488946477256, 50.58696130537754, 62.62024673877916 
136.01946725602548, 4.963556966922466, 22.63654375385665, 98.04451197425996, 50.70696637103026, 62.61891536396 
135.12292382135905, 5.20847559484277, 22.636435526884707, 97.33341706421425, 50.82961804251421, 62.61755591480093 
134.22734095717027, 5.458076009902107, 22.63631993830468, 96.62157673742588, 50.95490033093411, 62.616168677446005 
133.33270319650404, 5.712292529725575, 22.63619672993608, 95.90896215875479, 51.08279688921712, 62.614753946272195 
132.43899301608016, 5.971058637750947, 22.63606564576411, 95.19554362729136, 51.21329101228207, 62.613312023958436 
131.54619083568946, 6.234307010869947, 22.635926432378678, 94.4812905477751, 51.34636563710337, 62.611843221551936 
130.65427501897574, 6.501969546196631, 22.63577883941242, 93.76617140123362, 51.48200334266212, 62.610347858532144 
129.76322187552225, 6.773977386920345, 22.6356226199768, 93.0501537148043, 51.62018634977573, 62.608826262871816 
128.87300566415834, 7.050260947204112, 22.635457531095984, 92.33320403069841, 51.760896520797765, 62.607278771095 
127.98359859740627, 7.330749936091334, 22.6352833341377, 91.6152878742666, 51.90411535917901, 62.605705728331884 
127.09497084698641, 7.615373380386881, 22.635099795240706, 90.896369721122, 52.04982400888062, 62.60410748837013 
126.20709055030171, 7.904059646480971, 22.634906685738173, 90.17641296327615, 52.19800325362986, 62.60248441370262 
125.31992381782472, 8.196736461086887, 22.634703782576466, 89.45537987424062, 52.348633516008384, 62.60083687557131 
124.4334347413109, 8.493330930866128, 22.634490868728818, 88.73323157304507, 52.50169485636322, 62.59916525400707 
123.54758540276623, 8.793769560917145, 22.6342677336032, 88.00992798712105, 52.65716697152916, 62.597469937865114 
122.66233588409833, 9.0979782721061, 22.634034173444086, 87.28542781399783, 52.81502919335231, 62.59575132485629 
121.77764427738445, 9.405882417220424, 22.633789991727316, 86.55968848175526, 52.975260487002615, 62.59400982157357 
120.89346669569197, 9.717406795928603, 22.633534999547756, 85.83266610817529, 53.13783944906388, 62.592245843513545 
120.00975728439187, 10.032475668531141, 22.633269015999115, 85.10431545853277, 53.302744305388764, 62.590459815093325 
119.12646823290771, 10.351012768490685, 22.6329918685454, 84.37458990196197, 53.46995290870574, 62.5886521696617 
118.24354978684845, 10.672941313730515, 22.632703393383643, 83.6434413663345, 53.639442735964714, 62.586823349505664 
117.36095026047649, 10.998184016693218, 22.632403435797304, 82.91082029158014, 53.811190885407264, 62.584973805850645 
116.47861604946696, 11.326663093153131, 22.632091850499833, 82.17667558138032, 53.98517407334695, 62.58310399885562 
115.59649164391976, 11.658300269777714, 22.631768501968136, 81.44095455316098, 54.161368630644276, 62.581214397602096 
114.71451964158906, 11.993016790435409, 22.631433264765256, 80.70360288630813, 54.33975049886092, 62.579305480077124 
113.8326407613025, 12.330733421248585, 22.63108602385197, 79.96456456852746, 54.52029522607599, 62.57737773315029 
112.95079385654458, 12.671370454392456, 22.630726674886898, 79.22378184026496, 54.702977962347674, 62.57543165254419 
112.06891592918691, 13.01484771064197, 22.630355124514615, 78.4811951371041, 54.887773454801696, 62.573467742798684 
111.18694214335183, 13.36108454067071, 22.629971290641453, 77.73674303004991, 55.07465604232802, 62.57148651722838 
110.30480583940242, 13.709999825106824, 22.629575102698595, 76.99036216360898, 55.26359964986584, 62.569488497873685 
109.42243854805805, 14.061511973352982, 22.629166501892048, 76.24198719156969, 55.4545777822563, 62.56747421544488 
108.5397700046398, 14.41553892117853, 22.628745441439275, 75.49155071038408, 55.64756351764119, 62.565444209259205 
107.65672816345818, 14.77199812709327, 22.628311886792005, 74.7389831900499, 55.842529500385034, 62.563399027171215 
106.77323921236, 15.130806567514242, 22.62786581584501, 73.98421290238694, 56.039447933496845, 62.56133922549579 
105.88922758745998, 15.491880730737439, 22.62740721913045, 73.22716584659926, 56.23829057052654, 62.559265368923974 
105.00461598808788, 15.855136609728671, 22.626936099997703, 72.46776567201076, 56.439028706910044, 62.55717803043159 
