# MEX_intpoint_lon [deg], MEX_intpoint_lat [deg], MEX_intpoint_angle [deg], TGO_intpoint_lon [deg], TGO_intpoint_lat [deg], TGO_intpoint_angle [deg] 
-104.85653662172675, 20.629377863424846, 22.853868164304345, 178.73645416739961, 58.739941503100106, 62.53724518928818 
-105.74852435690889, 20.23428296180202, 22.854518725135307, 177.95971162586707, 58.507840120021875, 62.539568035552875 
-106.6388021014633, 19.840341638742846, 22.855157102550024, 177.18633770669638, 58.277348472036714, 62.541884583012745 
-107.52747236043854, 19.447646288186167, 22.85578311668217, 176.4162191098742, 58.04850146382001, 62.54419413074353 
-108.41463597545925, 19.056288618666628, 22.856396602418325, 175.6492463220801, 57.82133340528845, 62.546495985073925 
-109.3003921059172, 18.666359676405513, 22.856997409417474, 174.8853134777841, 57.595878029509265, 62.54878945977989 
-110.18483821127366, 18.277949867383914, 22.85758540211261, 174.124318226031, 57.37216850955507, 62.551073876270344 
-111.06807003432768, 17.891148978366502, 22.858160459694655, 173.36616160268068, 57.150237474357745, 62.55334856376459 
-111.95018158531757, 17.506046196846082, 22.858722476078704, 172.61074790787984, 56.93011702361199, 62.55561285946116 
-112.83126512673238, 17.12273012988113, 22.85927135985257, 171.8579845885476, 56.71183874177672, 62.55786610869794 
-113.71141115872145, 16.741288821800314, 22.859807034207964, 171.10778212566328, 56.49543371121958, 62.56010766510429 
-114.59070840499957, 16.361809770749698, 22.86032943685423, 170.36005392615309, 56.280932524547914, 62.562336890744085 
-115.46924379915525, 15.984379944059999, 22.860838519914918, 169.61471621917758, 56.068365296166796, 62.56455315625082 
-116.34710247127913, 15.609085792412452, 22.861334249807307, 168.87168795663027, 55.857761673102814, 62.566755840953995 
-117.2243677348379, 15.236013262783828, 22.861816607105126, 168.13089071766396, 55.649150845130315, 62.56894433299719 
-118.10112107372942, 14.865247810151777, 22.862285586384623, 167.39224861706754, 55.44256155423489, 62.57111802944789 
-118.97744212946093, 14.496874407943796, 22.862741196054227, 166.65568821732478, 55.238022103447015, 62.57327633639888 
-119.8534086884031, 14.130977557213523, 22.863183458168134, 165.92113844419052, 55.035560365077096, 62.575418669061676 
-120.72909666907809, 13.767641294530124, 22.86361240822399, 165.18853050562853, 54.835203788381776, 62.57754445185172 
-121.60458010944994, 13.406949198567078, 22.864028094944985, 164.45779781395984, 54.63697940668959, 62.57965311846544 
-122.47993115419095, 13.048984395378477, 22.864430580046754, 163.72887591107772, 54.44091384401272, 62.581744111949625 
-123.35522004190665, 12.693829562351661, 22.864819937989264, 163.00170239659082, 54.24703332117059, 62.58381688476281 
-124.23051509230787, 12.341566930826733, 22.865196255714157, 162.27621685876142, 54.05536366144915, 62.58587089882906 
-125.10588269332625, 11.992278287374443, 22.865559632367884, 161.55236080811233, 53.8659302958194, 62.58790562558402 
-125.98138728817528, 11.6460449737254, 22.865910179010967, 160.83007761358, 53.678758267736626, 62.58992054601369 
-126.85709136236622, 11.302947885344956, 22.86624801831384, 160.10931244109833, 53.493872237541694, 62.59191515068584 
-127.73305543069385, 10.963067468649296, 22.86657328423961, 159.3900121945005, 53.311296486484096, 62.59388893977407 
-128.60933802421383, 10.62648371686019, 22.86688612171431, 158.67212545863325, 53.13105492038591, 62.595841423075186 
-129.48599567723858, 10.293276164496703, 22.86718668628491, 157.95560244458025, 52.953171072964814, 62.59777212001946 
-130.3630829143849, 9.963523880504638, 22.867475143765674, 157.2403949368985, 52.777668108833524, 62.59968055967417 
-131.2406522377118, 9.637305460025225, 22.867751669873297, 156.5264562427728, 52.604568826192235, 62.601566280740926 
-132.11875411399242, 9.314699014807164, 22.86801644985128, 155.8137411430002, 52.43389565922997, 62.60342883154627 
-132.99743696216916, 8.995782162267377, 22.868269678084122, 155.10220584471827, 52.265670680249976, 62.605267770026394 
-133.8767471410458, 8.680632013208045, 22.868511557701733, 154.39180793579618, 52.099915601533844, 62.60708266370576 
-134.75672893727508, 8.369325158199512, 22.868742300174706, 153.68250634081022, 51.936651776958094, 62.60887308967 
-135.63742455370564, 8.061937652640507, 22.868962124900893, 152.9742612785293, 51.77590020337686, 62.61063863453317 
-136.51887409815484, 7.758545000509657, 22.869171258783904, 152.26703422083918, 51.61768152178321, 62.61237889439975 
-137.4011155726796, 7.459222136824317, 22.869369935804034, 151.56078785303745, 51.46201601826186, 62.61409347482154 
-138.2841848634196, 7.164043408825241, 22.869558396582203, 150.8554860354342, 51.308923624744715, 62.61578199074916 
-139.16811573109285, 6.873082555907838, 22.8697368879375, 150.1510937661957, 51.15842391958076, 62.61744406647967 
-140.05293980222396, 6.586412688323758, 22.869905662438878, 149.4475771453727, 51.010536127931566, 62.61907933559877 
-140.9386865611909, 6.304106264678603, 22.870064977951657, 148.7449033400555, 50.86527912200255, 62.62068744091941 
-141.82538334317732, 6.02623506825473, 22.870215097179337, 148.04304055060229, 50.72267142112038, 62.62226803441597 
-142.71305532811954, 5.7528701821906365, 22.870356287201396, 147.34195797788857, 50.58273119166647, 62.6238207771548 
-143.60172553574048, 5.484081963551204, 22.870488819007686, 146.6416257915284, 50.44547624687573, 62.625345339221184 
-144.4914148217627, 5.2199400163261265, 22.870612967029984, 145.94201509901987, 50.31092404650996, 62.62684139964284 
-145.3821418753949, 4.960513163396654, 22.87072900867135, 145.24309791576977, 50.17909169641465, 62.62830864631037 
-146.27392321818647, 4.705869417513811, 22.8708372238339, 144.54484713595463, 50.04999594796764, 62.62974677589503 
-147.16677320434582, 4.4560759513340376, 22.87093789444566, 143.8472365041759, 49.92365319742797, 62.63115549376332 
-148.06070402261602, 4.2111990665615915, 22.871031303987053, 143.15024058787122, 49.80007948519286, 62.63253451389012 
-148.95572569980365, 3.9713041622495746, 22.871117737017634, 142.45383475044275, 49.67929049497056, 62.63388355876863 
-149.8518461060525, 3.7364557023148244, 22.87119747870384, 141.7579951250677, 49.561301552876344, 62.6352023593192 
-150.74907096195537, 3.506717182324641, 22.871270814348154, 141.06269858915599, 49.44612762645921, 62.6364906547961 
-151.64740384759202, 3.2821510956163094, 22.871338028920544, 140.3679227394227, 49.33378332366591, 62.63774819269299 
-152.5468462135816, 3.0628188988132945, 22.871399406592516, 139.67364586754343, 49.224282891749304, 62.638974728647305 
-153.44739739423306, 2.848780976804642, 22.87145523027472, 138.97984693636326, 49.11764021612739, 62.6401700263434 
-154.3490546228738, 2.640096607257017, 22.871505781158394, 138.2865055566299, 49.013868819199594, 62.64133385741538 
-155.25181304943385, 2.4368239247311374, 22.871551338261536, 137.59360196422452, 48.91298185912618, 62.64246600134924 
-156.15566576035653, 2.2390198844771336, 22.871592177980133, 136.9011169978634, 48.81499212857678, 62.64356624538467 
-157.06060380090304, 2.0467402259855056, 22.87162857364532, 136.209032077246, 48.71991205345399, 62.64463438441716 
-157.966616199912, 1.8600394363725343, 22.871660795086797, 135.5173291816251, 48.62775369159717, 62.645670220900094 
-158.87368999706905, 1.6789707136811145, 22.871689108203213, 134.82599082877667, 48.53852873147226, 62.64667356474737 
-159.78181027273573, 1.5035859301796382, 22.871713774540133, 134.1350000543475, 48.452248490852405, 62.64764423323671 
-160.69096018037874, 1.3339355957433074, 22.87173505087599, 133.4443403915595, 48.368923915494555, 62.64858205091391 
-161.6011209816344, 1.1700688214035235, 22.871753188816694, 132.75399585125118, 48.288565577816975, 62.64948684949796 
-162.51227208403475, 1.0120332831521646, 22.87176843439941, 132.06395090223708, 48.21118367558208, 62.650358467787825 
-163.42439108141343, 0.85987518608846, 22.87178102770595, 131.3741904519672, 48.136788030589244, 62.65119675157053 
-164.3374537970021, 0.713639228996697, 22.871791202486467, 130.68469982746825, 48.06538808738177, 62.65200155353091 
-165.25143432921703, 0.573368569443503, 22.871799185793684, 129.99546475655129, 47.99699291197235, 62.652772733163566 
-166.16630510012934, 0.43910478948327064, 22.871805197628476, 129.30647134926855, 47.93161119059073, 62.653510156686636 
-167.08203690660076, 0.3108878620600519, 22.871809450596945, 128.61770607960523, 47.86925122845762, 62.65421369695786 
-167.99859897405813, 0.18875611819389845, 22.87181214957962, 127.9291557673907, 47.80992094858844, 62.65488323339347 
-168.91595901287045, 0.07274621503828192, 22.871813491413302, 127.24080756041616, 47.753627890630206, 62.65551865188927 
-169.83408327728247, -0.03710689510556773, 22.871813664585726, 126.55264891674416, 47.70037920973512, 62.65611984474478 
-170.7529366268486, -0.1407699947334007, 22.87181284894364, 125.86466758719789, 47.650181675474016, 62.65668671059026 
-171.672482590302, -0.23821162995966128, 22.871811215414688, 125.17685159801758, 47.60304167079228, 62.65721915431694 
-172.59268343178334, -0.32940213813608327, 22.87180892574333, 124.48918923367198, 47.55896519101165, 62.65771708701045 
-173.51350021934527, -0.4143136741899203, 22.871806132241264, 123.80166901981366, 47.517957842880065, 62.658180425887515 
-174.43489289563763, -0.4929202356072297, 22.871802977552704, 123.11427970636684, 47.480024843672396, 62.65860909423652 
-175.35682035067188, -0.5651976859899359, 22.871799594434652, 122.42701025073748, 47.44517102034414, 62.659003021361364 
-176.27924049655186, -0.6311237771189196, 22.871796105552743, 121.73984980113444, 47.41340080874059, 62.659362142529325 
-177.20211034405185, -0.690678169459102, 22.8717926232926, 121.05278767999307, 47.38471825286308, 62.659686398922624 
-178.12538608091347, -0.7438424510467004, 22.871789249587245, 120.36581336749028, 47.35912700419456, 62.659975737594166 
-179.0490231517266, -0.790600154703134, 22.87178607576062, 119.67891648514232, 47.33663032108589, 62.6602301114272 
-179.97297633925155, -0.8309367735246559, 22.871783182387457, 118.99208677947613, 47.317231068204556, 62.660449479098986 
179.1028001529656, -0.864839774601756, 22.871780639169767, 118.30531410576509, 47.30093171604713, 62.66063380504916 
178.17835261683902, -0.8922986109273223, 22.871778504829958, 117.61858841182058, 47.28773434051662, 62.66078305945169 
177.2537277550102, -0.9133047314578422, 22.871776827020938, 116.93189972183076, 47.27764062256577, 62.66089721819187 
176.32897259529923, -0.9278515892974939, 22.87177564225306, 116.24523812023808, 47.270651847907224, 62.66097626284719 
175.4041344045086, -0.935934647980285, 22.871774975838242, 115.55859373564743, 47.266768906791164, 62.66102018067279 
174.47926060174913, -0.93755138583139, 22.871774841851263, 114.87195672475639, 47.26599229385112, 62.661028964591516 
173.5543986714612, -0.932701298394384, 22.871775243108136, 114.18531725629973, 47.26832210801807, 62.66100261318821 
172.62959607630503, -0.9213858989170673, 22.871776171161855, 113.49866549500003, 47.27375805250333, 62.66094113070861 
171.70490017009462, -0.903608716894369, 22.871777606315312, 112.8119915855161, 47.28229943485002, 62.66084452706274 
170.78035811094966, -0.8793752946727971, 22.871779517651444, 112.12528563638158, 47.29394516705316, 62.66071281783274 
169.85601677483902, -0.8486931821266683, 22.87178186308056, 111.43853770392496, 47.30869376574804, 62.66054602428514 
168.93192266968694, -0.8115719294222689, 22.87178458940482, 110.75173777616352, 47.326543352466366, 62.660344173387664 
168.0081218502118, -0.7680230778917803, 22.871787632399705, 110.06487575666257, 47.347491653959594, 62.660107297830294 
167.08465983366207, -0.7180601490444444, 22.87179091691246, 109.37794144835159, 47.371536002588776, 62.6598354360509 
166.16158151661236, -0.6616986317480089, 22.871794356977237, 108.69092453728904, 47.398673336779794, 62.65952863226493 
165.23893109297543, -0.5989559676187715, 22.87179785594704, 108.00381457636696, 47.42890020154286, 62.65918693649952 
164.31675197338285, -0.5298515346637285, 22.87180130664196, 107.31660096894667, 47.462212749055304, 62.65881040463189 
163.39508670607822, -0.4544066292233666, 22.871804591513786, 106.62927295241647, 47.49860673930576, 62.6583990984314 
162.47397689946362, -0.3726444462682303, 22.871807582826644, 105.94181958166195, 47.53807754079848, 62.6579530856062 
161.55346314642958, -0.28459005810714283, 22.871810142853427, 105.25422971243971, 47.58062013131592, 62.65747243985337 
160.63358495059293, -0.19027039156885453, 22.871812124087768, 104.5664919846443, 47.626229098737504, 62.65695724091317 
159.71438065455874, -0.08971420372317301, 22.87181336947131, 103.87859480545846, 47.67489864191275, 62.656407574626726 
158.79588737031295, 0.017047943788906474, 22.8718137126359, 103.19052633237598, 47.726622571586255, 62.65582353299749 
157.87814091184484, 0.12998371174310958, 22.87181297816044, 102.50227445608654, 47.781394311372196, 62.6552052142562 
156.96117573008783, 0.2490590115618995, 22.871810981842028, 101.81382678321111, 47.83920689877585, 62.65455272292899 
156.04502485025947, 0.3742380347078232, 22.8718075309811, 101.12517061887631, 47.900052986259155, 62.65386616990895 
155.12971981166996, 0.5054832831591096, 22.871802424679995, 100.43629294911544, 47.96392484234776, 62.653145672530364 
154.2152906100604, 0.6427556008844199, 22.871795454154814, 99.74718042308368, 48.03081435277606, 62.652391354646255 
153.30176564252213, 0.7860142062317419, 22.871786403059975, 99.05781933507421, 48.10071302166733, 62.65160334670832 
152.38917165503722, 0.9352167251452157, 22.871775047825075, 98.36819560632155, 48.173611972745356, 62.65078178584965 
151.47753369267306, 1.0903192251224707, 22.87176115800364, 97.67829476657762, 48.249501950574114, 62.64992681596951 
150.5668750524523, 1.25127624982435, 22.87174449663331, 96.98810193544611, 48.328373321821694, 62.649038587820876 
149.6572172389109, 1.4180408542485283, 22.871724820606893, 96.29760180345885, 48.41021607654459, 62.648117259099386 
148.74857992234752, 1.5905646403782316, 22.87170188105392, 95.60677861287829, 48.49501982948834, 62.64716299453445 
147.84098089975956, 1.7687977932177334, 22.871675423732103, 94.91561613820912, 48.58277382140022, 62.6461759659819 
146.93443605845056, 1.952689117126357, 22.87164518942822, 94.2240976664011, 48.67346692034971, 62.64515635251809 
146.02895934228712, 2.142186072363998, 22.871610914367903, 93.53220597672434, 48.76708762305198, 62.6441043405352 
145.12456272057474, 2.3372348117615815, 22.871572330633704, 92.83992332029798, 48.8636240561899, 62.643020123837445 
144.2212561595141, 2.537780217431701, 22.871529166591095, 92.14723139925125, 48.963063977729476, 62.64190390373814 
143.31904759619312, 2.743765937435681, 22.8714811473215, 91.45411134549666, 49.065394778223656, 62.640755889157475 
142.417942915062, 2.955134422325411, 22.871427995062216, 90.76054369909168, 49.17060348209938, 62.63957629672032 
141.5179459268339, 3.1718269614799195, 22.871369429652187, 90.06650838616693, 49.27867674892215, 62.638365350854414 
140.61905834974587, 3.3937837191589297, 22.871305168983444, 89.37198469639537, 49.389600874632855, 62.63712328388829 
139.72127979311205, 3.6209437701977234, 22.871234929457312, 88.67695125997783, 49.50336179275059, 62.635850336148934 
138.82460774309368, 3.853245135270317, 22.871158426445028, 87.98138602411738, 49.61994507553588, 62.634546756058796 
137.9290375506081, 4.0906248156501235, 22.87107537475195, 87.28526622895535, 49.73933593510772, 62.63321280023199 
137.03456242129434, 4.333018827400245, 22.87098548908489, 86.58856838293893, 49.8615192245082, 62.63184873356944 
136.14117340744917, 4.580362234928173, 22.8708884845219, 85.89126823759022, 49.98647943870807, 62.63045482935288 
135.24885940184572, 4.832589183842389, 22.870784076983856, 85.1933407616446, 50.114200715546254, 62.62903136933697 
134.35760713334392, 5.089632933051512, 22.87067198370738, 84.49476011452448, 50.24466683659625, 62.627578643839904 
133.46740116419969, 5.351425886049242, 22.870551923718196, 83.79549961911388, 50.37786122795233, 62.62609695183198 
132.57822388898006, 5.617899621331707, 22.870423618304624, 83.09553173379612, 50.51376696092747, 62.62458660102191 
131.69005553498852, 5.88898492189643, 22.870286791490305, 82.39482802371742, 50.65236675265565, 62.62304790794033 
130.80287416410636, 6.164611803775476, 22.87014117050572, 81.69335913123457, 50.79364296659022, 62.62148119802101 
129.91665567595467, 6.444709543558044, 22.8699864862578, 80.99109474550589, 50.93757761288979, 62.61988680567879 
129.0313738122826, 6.729206704860974, 22.86982247379705, 80.28800357118013, 51.08415234868337, 62.618265074384354 
128.14700016248838, 7.018031163708398, 22.869648872781546, 79.58405329613795, 51.233348478205365, 62.61661635673562 
127.2635041701812, 7.311110132784755, 22.86946542793713, 78.87921055823722, 51.38514695279135, 62.61494101452528 
126.38085314069237, 7.608370184528343, 22.869271889513417, 78.17344091101111, 51.53952837072496, 62.613239418804504 
125.49901224944884, 7.909737273035042, 22.869068013734715, 77.46670878826701, 51.69647297692581, 62.61151194994257 
124.6179445511215, 8.215136754745044, 22.868853563245494, 76.75897746752946, 51.855960662468206, 62.60975899768195 
123.73761098946619, 8.524493407887586, 22.86862830754972, 76.05020903227022, 52.017970963919716, 62.607980961188815 
122.85797040777581, 8.837731450661744, 22.86839202344349, 75.3403643328638, 52.18248306248858, 62.606178249098754 
121.97897955986808, 9.154774558133361, 22.868144495440387, 74.62940294620559, 52.34947578296816, 62.60435127955753 
121.10059312153403, 9.475545877831093, 22.867885516189, 73.91728313392518, 52.51892759246658, 62.60250048025637 
120.22276370237925, 9.799968044026363, 22.867614886882095, 73.20396179912633, 52.69081659890862, 62.60062628846186 
119.34544185799129, 10.127963190684778, 22.867332417656833, 72.4893944415795, 52.86512054929714, 62.59872915104038 
118.46857610237328, 10.459452963078276, 22.867037927985518, 71.77353511129154, 53.04181682772012, 62.59680952447629 
117.59211292058687, 10.794358528049523, 22.866731247056357, 71.05633636037261, 53.220882453089075, 62.59486787488442 
116.71599678155303, 11.132600582922153, 22.866412214143836, 70.3377491931165, 53.4022940765942, 62.592904678016 
115.84017015096468, 11.474099363052035, 22.866080678967965, 69.61772301420741, 53.586027978860315, 62.59092041925835 
114.96457350426913, 11.818774648016879, 22.865736502042154, 68.89620557496178, 53.77206006678795, 62.58891559362804 
114.08914533968553, 12.16654576644287, 22.865379555009213, 68.1731429175097, 53.960365870061906, 62.58689070575692 
113.21382219122617, 12.51733159946907, 22.865009720964807, 67.44847931681592, 54.15092053731016, 62.58484626987162 
112.33853864169804, 12.871050582851392, 22.864626894768254, 66.72215722043637, 54.34369883189411, 62.58278280976564 
111.46322733566574, 13.227620707710022, 22.864230983340043, 65.99411718590073, 54.53867512731091, 62.580700858764466 
110.5878189923641, 13.586959519925012, 22.863821905945613, 65.26429781560742, 54.735823402187194, 62.57860095968301 
109.71224241855424, 13.948984118186603, 22.86339959446525, 64.53263568911177, 54.935117234843, 62.576483664775836 
108.83642452132399, 14.313611150708077, 22.862963993649455, 63.79906529268289, 55.13652979740339, 62.57434953567946 
107.96029032084058, 14.68075681060993, 22.8625150613596, 63.063518945999604, 55.340033849433716, 62.57219914334715 
107.08376296306939, 15.050336829985957, 22.86205276879352, 62.32592672584982, 55.54560173107431, 62.57003306797556 
106.20676373248125, 15.422266472662516, 22.86157710069558, 61.586216386692094, 55.75320535564787, 62.567851898923685 
105.32921206477666, 15.796460525663987, 22.86108805555114, 60.84431327793179, 55.96281620171244, 62.56565623462351 
