# MEX_intpoint_lon [deg], MEX_intpoint_lat [deg], MEX_intpoint_angle [deg], TGO_intpoint_lon [deg], TGO_intpoint_lat [deg], TGO_intpoint_angle [deg] 
-104.02558521771039, 20.44044435334534, 22.35000870898004, -151.23947016085012, 59.09844371288314, 62.52889906891098 
-104.93314176561665, 20.071253346303788, 22.350597702415506, -152.03605251866588, 58.876750800596945, 62.531102028948844 
-105.8390046412866, 19.703069354880963, 22.351176280087834, -152.82909069819058, 58.65655004172455, 62.53329932584154 
-106.7432655731595, 19.335982104597434, 22.351744278208464, -153.61869828375129, 58.43787687817317, 62.53549029422083 
-107.64601496045849, 18.970080658253043, 22.352301545598202, -154.40498525742632, 58.220766125783975, 62.537674275219466 
-108.54734184508423, 18.605453432798924, 22.352847943706788, -155.18805812210908, 58.00525199268847, 62.53985061665672 
-109.44733388494195, 18.242188215484084, 22.353383346617257, -155.96802002012944, 57.791368096656136, 62.542018673216525 
-110.34607732857489, 17.880372179239476, 22.353907641035086, -156.74497084757022, 57.57914748148086, 62.54417780661791 
-111.24365699098614, 17.52009189726436, 22.354420726262227, -157.51900736441604, 57.36862263245157, 62.54632738577811 
-112.14015623053825, 17.161433356782396, 22.35492251415605, -158.29022330067275, 57.15982549095045, 62.54846678696744 
-113.03565692682959, 16.804481971936426, 22.35541292907339, -159.05870945859414, 56.9527874682196, 62.55059539395726 
-113.93023945945284, 16.44932259579344, 22.355891907799673, -159.82455381115108, 56.747539458335666, 62.552712598159935 
-114.82398268755026, 16.096039531432773, 22.356359399463415, -160.5878415968767, 56.54411185042975, 62.55481779876121 
-115.71696393008722, 15.744716542092261, 22.35681536543608, -161.34865541121965, 56.342534540188076, 62.55691040284512 
-116.60925894677263, 15.395436860349323, 22.35725977921758, -162.107075294533, 56.142836940667536, 62.558989825511425 
-117.50094191956352, 15.048283196314875, 22.35769262630755, -162.86317881682598, 55.94504799245824, 62.561055489985335 
-118.3920854346963, 14.703337744820349, 22.358113904062574, -163.61704115940123, 55.74919617322404, 62.56310682772005 
-119.28276046519585, 14.36068219157893, 22.358523621539664, -164.36873519349737, 55.555309506650275, 62.56514327849175 
-120.1730363538189, 14.020397718304332, 22.358921799326176, -165.11833155605396, 55.363415570826774, 62.56716429048753 
-121.06298079639599, 13.682565006771378, 22.359308469356293, -165.86589872271193, 55.1735415060928, 62.56916932038568 
-121.95265982554145, 13.347264241804588, 22.359683674714645, -166.61150307816013, 54.98571402236938, 62.571157833429226 
-122.84213779470822, 13.014575113182092, 22.36004746942697, -167.35520898393406, 54.7999594060033, 62.57312930349227 
-123.73147736256955, 12.684576816444022, 22.36039991823845, -168.09707884377033, 54.61630352614603, 62.57508321313926 
-124.62073947771567, 12.35734805259579, 22.36074109637977, -168.83717316661705, 54.4347718406895, 62.577019053677645 
-125.50998336365998, 12.032967026698165, 22.361071089321428, -169.57555062739613, 54.25538940178023, 62.57893632520361 
-126.39926650415326, 11.711511445337894, 22.361389992516507, -170.3122681256111, 54.07818086093158, 62.58083453664116 
-127.28864462881185, 11.3930585129737, 22.361697911132286, -171.04738084189066, 53.903170473753846, 62.58271320577501 
-128.17817169906908, 11.077684927154507, 22.361994959771124, -171.78094229255387, 53.73038210432034, 62.58457185927675 
-129.0678998944655, 10.765466872608073, 22.36228126218094, -172.51300438228168, 53.55983922918735, 62.586410032724906 
-129.9578795992977, 10.456480014200109, 22.362556950955618, -173.2436174549743, 53.39156494108479, 62.588227270619235 
-130.84815938965056, 10.150799488765356, 22.362822167225975, -173.9728303428728, 53.22558195229381, 62.59002312638847 
-131.7387860208421, 9.848499895814339, 22.363077060341368, -174.70069041401922, 53.061912597726774, 62.59179716239293 
-132.6298044153144, 9.549655287120672, 22.363321787542716, -175.4272436181266, 52.90057883772471, 62.593548949921235 
-133.52125765100826, 9.25433915519632, 22.363556513627067, -176.15253453092882, 52.741602260586255, 62.59527806918142 
-134.41318695026308, 8.962624420663614, 22.36378141060443, -176.8766063970758, 52.585004084842055, 62.596984109287185 
-135.30563166928766, 8.674583418535079, 22.363996657347137, -177.59950117163814, 52.430805161287545, 62.59866666823876 
-136.19862928825015, 8.39028788341395, 22.36420243923225, -178.32125956028278, 52.27902597478692, 62.600325352898786 
-137.0922154020392, 8.109808933630553, 22.364398947777595, -179.041921058178, 52.129686645860424, 62.60195977896396 
-137.98642371175214, 7.833217054331696, 22.36458638027174, -179.76152398768426, 51.98280693206665, 62.60356957093149 
-138.88128601696712, 7.560582079542216, 22.36476493939852, 179.51989446511394, 51.838406229190994, 62.6051543620617 
-139.77683220886007, 7.2919731732205975, 22.364934832856587, 178.80229821498446, 51.69650357225125, 62.60671379433626 
-140.6730902642291, 7.027458809332138, 22.36509627297449, 178.08565224318136, 51.55711763633072, 62.60824751841259 
-141.57008624049058, 6.767106750965999, 22.36524947632172, 177.36992256408817, 51.42026673724892, 62.609755193574316 
-142.46784427171372, 6.51098402852454, 22.36539466331641, 176.65507619282505, 51.28596883207944, 62.611236487678546 
-143.36638656576068, 6.259156917015725, 22.36553205782997, 175.94108111377548, 51.154241519524525, 62.612691077099335 
-144.26573340260146, 6.011690912481842, 22.36566188678945, 175.22790624998993, 51.02510204015526, 62.61411864666845 
-145.1659031338725, 5.768650707600164, 22.365784379777867, 174.51552143342633, 50.89856727652613, 62.615518889613 
-146.06691218374883, 5.530100166493582, 22.365899768633305, 173.80389737598816, 50.774653753172245, 62.61689150749033 
-146.9687750512003, 5.296102298791505, 22.36600828704708, 173.09300564132275, 50.653377636497616, 62.61823621012067 
-147.87150431370003, 5.0667192329841315, 22.366110170161686, 172.3828186173442, 50.53475473456199, 62.619552715517095 
-148.77511063245555, 4.842012189115018, 22.366205654168912, 171.67330948944667, 50.41880049677414, 62.620840749813844 
-149.6796027592289, 4.622041450859677, 22.366294975908765, 170.9644522143747, 50.30553001349873, 62.622100047192454 
-150.58498754481315, 4.406866337040069, 22.36637837246965, 170.25622149471937, 50.19495801558398, 62.623330349806494 
-151.49126994922878, 4.196545172627067, 22.366456080790382, 169.54859275401066, 50.08709887381686, 62.62453140770473 
-152.3984530537035, 3.991135259285272, 22.366528337264562, 168.84154211237527, 49.98196659831258, 62.62570297875311 
-153.30653807449386, 3.7906928455166486, 22.36659537734777, 168.13504636273439, 49.879574837844665, 62.62684482855564 
-154.2155243786064, 3.595273096461468, 22.366657435168218, 167.42908294751302, 49.77993687912183, 62.62795673037485 
-155.12540950147076, 3.404930063416973, 22.36671474314121, 166.72362993583636, 49.683065646017795, 62.62903846505111 
-156.03618916661534, 3.219716653136054, 22.36676753158809, 166.01866600118814, 49.58897369875948, 62.63008982092197 
-156.94785730738985, 3.0396845969699546, 22.366816028360066, 165.31417039950816, 49.49767323307961, 62.631110593741354 
-157.8604060907765, 2.8648844199204375, 22.366860458467446, 164.61012294770586, 49.40917607933874, 62.632100586598305 
-158.77382594332536, 2.695365409668458, 22.36690104371477, 163.90650400256905, 49.32349370162222, 62.63305960983665 
-159.68810557924525, 2.5311755856475404, 22.366938002342337, 163.20329444004645, 49.24063719681681, 62.63398748097448 
-160.60323203067486, 2.3723616682310777, 22.366971548674584, 162.50047563488488, 49.16061729367221, 62.634884024624625 
-161.51919068015437, 2.218969048103885, 22.367001892775754, 161.79802944060174, 49.0834443518517, 62.63574907241577 
-162.43596529531024, 2.071041755888832, 22.367029240113396, 161.0959381697747, 49.009128360976916, 62.63658246291454 
-163.3535380657605, 1.9286224320999534, 22.367053791230056, 160.3941845746311, 48.937678939670484, 62.63738404154889 
-164.27188964224118, 1.7917522974937408, 22.3670757414236, 159.69275182792012, 48.86910533460125, 62.63815366053279 
-165.19099917794685, 1.6604711238904402, 22.367095280436693, 158.99162350405186, 48.80341641953588, 62.638891178792285 
-166.1108443720722, 1.5348172055368452, 22.367112592155653, 158.29078356048797, 48.74062069440036, 62.63959646189348 
-167.03140151553424, 1.41482733108183, 22.367127854319307, 157.59021631936844, 48.68072628435569, 62.64026938197223 
-167.9526455388465, 1.3005367562351529, 22.367141238238098, 156.8899064493607, 48.62374093889067, 62.64090981766586 
-168.87455006211113, 1.191979177179189, 22.36715290852373, 156.18983894771722, 48.569672030935514, 62.641517654047064 
-169.7970874470852, 1.0891867048020794, 22.367163022830027, 155.4899991225284, 48.51852655599927, 62.6420927825602 
-170.72022885127208, 0.992189839819405, 22.367171731604927, 154.7903725751577, 48.4703111313342, 62.64263510095982 
-171.6439442839802, 0.901017448849882, 22.367179177854325, 154.09094518284718, 48.425031995129906, 62.64314451325195 
-172.56820266428485, 0.8156967415086107, 22.367185496917795, 153.39170308148118, 48.38269500573991, 62.64362092963812 
-173.49297188082122, 0.7362532485793082, 22.367190816256667, 152.69263264849715, 48.34330564094331, 62.64406426646197 
-174.41821885333013, 0.6627108013245864, 22.36719525525467, 151.993720485932, 48.30686899724386, 62.644474446159286 
-175.34390959587125, 0.5950915119906675, 22.367198925031396, 151.29495340359355, 48.273389789208586, 62.64485139721036 
-176.2700092816115, 0.533415755560046, 22.36720192826882, 150.59631840234698, 48.24287234884834, 62.64519505409633 
-177.19648230909118, 0.4777021528026979, 22.36720435905122, 149.89780265750517, 48.21532062504186, 62.64550535725826 
-178.12329236986307, 0.4279675546728494, 22.36720630271856, 149.19939350231462, 48.190738183005294, 62.64578225305943 
-179.0504025173958, 0.3842270280951344, 22.367207835733613, 148.50107841152575, 48.169128203808796, 62.6460256937517 
-179.97777523712597, 0.34649384318008847, 22.367209025562985, 147.80284498503948, 48.150493483941524, 62.646235637444704 
179.09462748245969, 0.31477946190516665, 22.367209930572212, 147.10468093162027, 48.13483643492655, 62.64641204807885 
178.16684407783598, 0.289093528293413, 22.367210599935017, 146.40657405266677, 48.12215908298652, 62.646554895402026 
177.23891333767227, 0.2694438601177913, 22.36721107355697, 145.70851222603167, 48.112463068761365, 62.646664154949896 
176.31087432941735, 0.2558364421549194, 22.367211382013423, 145.0104833898812, 48.10574964707863, 62.646739808029665 
175.38276632536954, 0.24827542100750238, 22.367211546502116, 144.31247552658652, 48.102019686777304, 62.64678184170809 
174.45462872836757, 0.24676310151044148, 22.36721157881026, 143.6144766466384, 48.10127367058538, 62.64679024880278 
173.52650099723937, 0.25129994473077294, 22.367211481296195, 142.91647477257604, 48.10351169505187, 62.64676502787748 
172.59842257214683, 0.26188456756744005, 22.367211246885777, 142.21845792292268, 48.10873347053316, 62.64670618324113 
171.67043279996548, 0.278513743951827, 22.367210859083336, 141.5204140961189, 48.116938321233846, 62.64661372495079 
170.74257085983706, 0.3011824076457611, 22.367210291997306, 140.82233125444537, 48.12812518530199, 62.64648766881812 
169.81487568903285, 0.32988365662880037, 22.36720951038037, 140.1241973079268, 48.14229261497849, 62.646328036419916 
168.88738590926437, 0.3646087590623215, 22.36720846968423, 139.4260000982088, 48.1594387768, 62.6461348551122 
167.96013975357596, 0.40534716081316446, 22.367207116128807, 138.72772738239826, 48.17956145185513, 62.64590815804812 
167.03317499395075, 0.4520864945153408, 22.367205386785827, 138.0293668168599, 48.20265803609278, 62.64564798419949 
166.1065288697599, 0.5048125901440121, 22.36720320967658, 137.3309059409593, 48.22872554068199, 62.64535437838199 
165.1802380171802, 0.5635094870714412, 22.36720050388396, 136.63233216074357, 48.25776059242218, 62.645027391284025 
164.25433839970157, 0.6281594475709973, 22.36719717967837, 135.9336327325512, 48.289759434202495, 62.64466707949887 
163.32886523984203, 0.6987429717308647, 22.367193138657523, 135.2347947465412, 48.32471792550898, 62.64427350556064 
162.4038529521815, 0.7752388137357807, 22.36718827389975, 134.53580511013254, 48.36263154297788, 62.643846737983225 
161.47933507782213, 0.8576239994711984, 22.367182470130924, 133.83665053134376, 48.40349538099374, 62.64338685130289 
160.5553442203754, 0.9458738454010996, 22.367175603904364, 133.13731750202308, 48.44730415232995, 62.6428939261239 
159.63191198357165, 1.0399619786673793, 22.367167543793922, 132.43779228095894, 48.494052188830175, 62.64236804916711 
158.70906891058056, 1.1398603583558078, 22.367158150599586, 131.73806087685955, 48.54373344212831, 62.641809313321964 
157.78684442512397, 1.245539297870825, 22.36714727756566, 131.03810903119185, 48.59634148440465, 62.64121781770096 
156.86526677445752, 1.3569674883589007, 22.36713477061099, 130.3379222008674, 48.65186950917587, 62.64059366769717 
155.94436297428774, 1.4741120231178888, 22.367120468571102, 129.63748554076437, 48.71031033211615, 62.63993697504425 
155.02415875568653, 1.5969384229279457, 22.36710420345184, 128.93678388607302, 48.77165639190659, 62.63924785787903 
154.10467851405616, 1.7254106622375358, 22.367085800694085, 128.23580173445254, 48.83589975111012, 62.63852644080653 
153.1859452601913, 1.8594911961368314, 22.36706507944952, 127.53452322798618, 48.90303209706868, 62.63777285496708 
152.2679805734768, 1.9991409880492912, 22.367041852866624, 126.83293213492085, 48.97304474281945, 62.636987238105796 
151.350804557253, 2.144319538071383, 22.367015928386884, 126.13101183117783, 49.04592862802665, 62.63616973464344 
150.43443579637224, 2.2949849118894448, 22.366987108050708, 125.42874528161921, 49.12167431992546, 62.63532049574978 
149.5188913169643, 2.4510937702023687, 22.36695518881253, 124.72611502105582, 49.2002720142742, 62.634439679417994 
148.6041865484202, 2.6126013985783723, 22.3669199628649, 124.02310313497976, 49.28171153631076, 62.63352745054081 
147.69033528759752, 2.7794617376740636, 22.366881217970896, 123.3196912400064, 49.365982341709504, 62.6325839809876 
146.77734966524352, 2.9516274137442515, 22.366838737804674, 122.61586046400751, 49.45307351753408, 62.631609449683054 
145.8652401146259, 3.129049769371368, 22.36679230229939, 121.91159142591832, 49.54297378318199, 62.630604042686194 
144.95401534235444, 3.311678894343813, 22.36674168800244, 121.20686421520008, 49.63567149131598, 62.629567953270495 
144.04368230137155, 3.4994636566135506, 22.366686668437037, 120.50165837093797, 49.73115462877801, 62.62850138200439 
143.13424616608324, 3.692351733264135, 22.366627014470236, 119.79595286055512, 49.829410817480266, 62.627404536832046 
142.22571030959676, 3.89028964142157, 22.366562494686367, 119.08972605812068, 49.930427315268616, 62.62627763315434 
141.31807628302724, 4.093222769041698, 22.366492875765736, 118.38295572223076, 50.03419101675283, 62.62512089390977 
140.41134379682904, 4.301095405509453, 22.366417922868028, 117.67561897343872, 50.1406884540983, 62.6239345496551 
139.50551070410523, 4.5138507719866805, 22.36633740001974, 116.96769227121128, 50.24990579777348, 62.62271883864529 
138.60057298584286, 4.731431051447322, 22.36625107050537, 116.2591513903851, 50.36182885724706, 62.6214740069133 
137.69652473801972, 4.9537774183403815, 22.366158697261707, 115.54997139709813, 50.47644308162913, 62.620200308348224 
136.79335816052392, 5.180830067823169, 22.366060043274665, 114.8401266241683, 50.593733560249476, 62.61889800477299 
135.89106354782513, 5.412528244509525, 22.36595487197828, 114.12959064589128, 50.71368502316715, 62.61756736602039 
134.98962928133466, 5.648810270679631, 22.36584294765521, 113.4183362522277, 50.83628184160398, 62.61620867000767 
134.0890418233881, 5.8896135739005295, 22.365724035838287, 112.70633542234899, 50.961508028295405, 62.61482220280927 
133.18928571278425, 6.134874714008468, 22.365597903712565, 111.99355929750963, 51.08934723775138, 62.61340825872792 
132.2903435618112, 6.384529409406888, 22.365464320517308, 111.27997815321221, 51.219782766419776, 62.61196714036301 
131.39219605469106, 6.638512562635764, 22.36532305794743, 110.56556137063014, 51.35279755274458, 62.61049915867717 
130.4948219473732, 6.896758285170964, 22.365173890553862, 109.85027740725164, 51.488374177111105, 62.609004633059875 
129.59819806860625, 7.159199921414075, 22.365016596142254, 109.13409376670697, 51.62649486166964, 62.60748389138828 
128.70229932221923, 7.425770071836212, 22.36485095616956, 108.41697696773859, 51.76714147002921, 62.60593727008526 
127.80709869054273, 7.696400615241092, 22.364676756137897, 107.69889251227352, 51.91029550681246, 62.6043651141738 
126.91256723890204, 7.971022730115567, 22.36449378598531, 106.97980485255431, 52.05593811706259, 62.60276777732847 
126.01867412111488, 8.249566915037944, 22.364301840472702, 106.25967735728341, 52.20405008549267, 62.60114562192276 
125.12538658592896, 8.53196300811669, 22.364100719566604, 105.53847227673432, 52.3546118355676, 62.599499019073 
124.23266998433486, 8.818140205434714, 22.363890228817233, 104.8161507067803, 52.50760342840839, 62.59782834867776 
123.34048777769344, 9.108027078476379, 22.36367017973124, 104.09267255178978, 52.66300456150812, 62.596133999453535 
122.44880154661823, 9.401551590517014, 22.363440390138834, 103.36799648633504, 52.82079456724865, 62.5944163689656 
121.55757100055648, 9.698641111956373, 22.363200684554556, 102.64207991565951, 52.980952411206445, 62.592675863654236 
120.66675398801507, 9.999222434580279, 22.36295089453151, 101.91487893484478, 53.14345669023579, 62.59091289885654 
119.77630650738128, 10.303221784736136, 22.36269085900829, 101.1863482866187, 53.30828563031672, 62.5891278988228 
118.8861827182907, 10.610564835410619, 22.36242042464834, 100.45644131774084, 53.4754170841551, 62.58732129672778 
117.9963349534995, 10.921176717199337, 22.362139446171245, 99.72510993390117, 53.64482852852118, 62.585493534676814 
117.10671373122109, 11.234982028160548, 22.36184778667542, 98.99230455306363, 53.81649706131265, 62.583645063706406 
116.2172677678913, 11.551904842546879, 22.361545317951897, 98.25797405718457, 53.990399398327845, 62.58177634377875 
115.32794399133138, 11.871868718410425, 22.361231920788736, 97.52206574223267, 54.16651186973344, 62.57988784377091 
114.43868755428115, 12.194796704079089, 22.360907485265553, 96.78452526643444, 54.3448104162114, 62.57798004145766 
113.5494418482805, 12.520611343502933, 22.360571911037955, 96.04529659666606, 54.525270584767945, 62.576053423488354 
112.66014851788101, 12.849234680471858, 22.36022510761127, 95.30432195290962, 54.707867524187854, 62.574108485357286 
111.77074747517597, 13.180588261706673, 22.359866994603482, 94.56154175068865, 54.89257598011557, 62.57214573136804 
110.88117691464001, 13.514593138828136, 22.359497501996668, 93.81689454139433, 55.07937028974454, 62.570165674590754 
109.9913733282777, 13.851169869209295, 22.359116570376877, 93.07031695041107, 55.2682243760948, 62.56816883681319 
109.10127152108305, 14.190238515718569, 22.358724151161994, 92.32174361294648, 55.45911174185832, 62.566155748484604 
108.21080462681937, 14.53171864536237, 22.358320206817243, 91.57110710746717, 55.65200546279045, 62.56412694865306 
107.31990412413441, 14.87552932683729, 22.357904711058094, 90.81833788663955, 55.84687818062462, 62.56208298489551 
106.42849985303096, 15.221589127003943, 22.35747764904028, 90.06336420566976, 56.04370209548687, 62.56002441324084 
105.53652003172012, 15.569816106295386, 22.357039017536565, 89.30611204793496, 56.242448957785165, 62.557951798085774 
104.64389127388996, 15.920127813075165, 22.356588825100125, 88.5465050477939, 56.443090059547345, 62.555865712103405 
