# MEX_intpoint_lon [deg], MEX_intpoint_lat [deg], MEX_intpoint_angle [deg], TGO_intpoint_lon [deg], TGO_intpoint_lat [deg], TGO_intpoint_angle [deg] 
-103.75492809929072, 20.376263736834613, 22.19263448768751, -142.78552906546327, 58.87909603996428, 62.531843623722814 
-104.66717450471336, 20.015409481903678, 22.193204345872577, -143.57001807116438, 58.650981861556986, 62.53412012197114 
-105.57773830475669, 19.65551726205849, 22.193764318760415, -144.35106623689964, 58.42443215550163, 62.536390571335836 
-106.48670776006323, 19.296675794760723, 22.194314247587425, -145.12878715593888, 58.19948205233704, 62.538654284629466 
-107.3941699033569, 18.938973145555668, 22.19485398555606, -145.9032906982612, 57.9761660746073, 62.54091058162175 
-108.3002105090303, 18.582496743012296, 22.19538339785437, -146.6746831436527, 57.75451815501065, 62.543158789230695 
-109.20491406422647, 18.227333393023745, 22.19590236166102, -147.4430673095902, 57.534571653507506, 62.54539824170506 
-110.1083637412948, 17.873569292429902, 22.19641076613609, -148.20854267410502, 57.316359373439184, 62.54762828079948 
-111.01064137150931, 17.521290041925973, 22.196908512397265, -148.97120549381773, 57.09991357670606, 62.54984825594071 
-111.91182741994459, 17.17058065822359, 22.197395513481975, -149.73114891733013, 56.8852659980518, 62.552057524386214 
-112.81200096141261, 16.821525585432383, 22.197871694295152, -150.48846309415708, 56.67244785849741, 62.554255451374395 
-113.7112396573705, 16.474208705632673, 22.198336991542998, -151.2432352793757, 56.4614898779669, 62.55644141026664 
-114.6096197337167, 16.1287133486114, 22.198791353652773, -151.99554993416393, 56.252422287144555, 62.55861478268146 
-115.50721595940033, 15.785122300735303, 22.199234740678705, -152.74548882239705, 56.045274838600974, 62.56077495862026 
-116.40410162577456, 15.443517812937436, 22.199667124194313, -153.49313110346353, 55.840076817224066, 62.56292133658534 
-117.30034852663302, 15.103981607794282, 22.200088487171172, -154.2385534214584, 55.63685704998861, 62.56505332368969 
-118.19602693887283, 14.766594885673035, 22.20049882384439, -154.9818299909048, 55.43564391509709, 62.56717033575903 
-119.09120560373665, 14.431438329929641, 22.200898139565, -155.72303267915206, 55.23646535052197, 62.569271797425735 
-119.98595170859004, 14.098592111140219, 22.201286450639472, -156.4622310855898, 55.03934886197894, 62.571357142215355 
-120.8803308691989, 13.768135890349727, 22.201663784156555, -157.19949261781682, 54.84432153035879, 62.57342581262492 
-121.77440711247546, 13.440148821323646, 22.202030177801774, -157.9348825648935, 54.65141001864427, 62.575477260194106 
-122.66824285966919, 13.114709551789463, 22.20238567965978, -158.6684641678068, 54.460640578337, 62.577510945568626 
-123.56189890998316, 12.791896223656925, 22.202730348004856, -159.40029868726685, 54.27203905541849, 62.579526338556114 
-124.45543442460279, 12.471786472206961, 22.203064251079883, -160.13044546895418, 54.085630895868036, 62.58152291817506 
-125.34890691112909, 12.154457424241082, 22.203387466864097, -160.85896200632826, 53.901441150759204, 62.58350017269627 
-126.24237220841312, 11.839985695184597, 22.203700082829872, -161.58590400110586, 53.719494480955554, 62.585457599677326 
-127.13588447179502, 11.528447385138282, 22.204002195689036, -162.31132542151272, 53.53981516142555, 62.5873947059904 
-128.0294961587537, 11.219918073875236, 22.20429391112881, -163.03527855840736, 53.3624270851955, 62.58931100784289 
-128.92325801497998, 10.91447281478071, 22.204575343538018, -163.75781407937254, 53.187353766958374, 62.59120603079179 
-129.8172190608897, 10.612186127734933, 22.20484661572372, -164.47898108086557, 53.01461834635617, 62.59307930975141 
-130.7114265785972, 10.313131990940136, 22.205107858618828, -165.1988271385149, 52.84424359095187, 62.594930388995074 
-131.6059260993751, 10.017383831695202, 22.205359210980863, -165.917398355647, 52.67625189890705, 62.59675882215025 
-132.50076139162906, 9.725014516122696, 22.205600819082576, -166.63473941012373, 52.510665301380264, 62.598564172188226 
-133.39597444942132, 9.436096337855252, 22.205832836394556, -167.350893599567, 52.34750546466063, 62.6003460114077 
-134.291605481579, 9.150701005689887, 22.206055423260462, -168.06590288504492, 52.18679369205052, 62.60210392141289 
-135.1876929014282, 8.868899630220827, 22.206268746565158, -168.7798079332895, 52.02855092551069, 62.60383749308636 
-136.0842733171969, 8.590762709463402, 22.20647297939631, -169.49264815751388, 51.872797747080696, 62.60554632655648 
-136.98138152313354, 8.31636011348355, 22.206668300699864, -170.20446175689344, 51.719554380086926, 62.60723003116001 
-137.87905049139027, 8.045761068049517, 22.206854894929773, -170.91528575477295, 51.56884069014998, 62.60888822540004 
-138.77731136472357, 7.779034137324322, 22.207032951692643, -171.6251560356592, 51.42067618600277, 62.61052053689892 
-139.67619345006543, 7.516247205619927, 22.207202665387513, -172.33410738105545, 51.27508002013048, 62.612126602347395 
-140.57572421302245, 7.257467458235864, 22.20736423484154, -173.04217350419216, 51.132070989242685, 62.61370606744903 
-141.47592927336035, 7.002761361407571, 22.2075178629417, -173.7493870837063, 50.99166753458788, 62.615258586861295 
-142.3768324015334, 6.752194641391729, 22.207663756263432, -174.4557797963183, 50.85388774212037, 62.616783824132426 
-143.27845551632072, 6.5058322627181, 22.207802124696343, -175.1613823485548, 50.71874934252865, 62.61828145163502 
-144.18081868362972, 6.263738405639676, 22.20793318106768, -175.86622450756258, 50.5862697111347, 62.619751150496434 
-145.08394011653044, 6.025976442815299, 22.208057140763977, -176.5703351310567, 50.4564658676728, 62.62119261052604 
-145.98783617658233, 5.792608915260915, 22.208174221351413, -177.2737421964455, 50.32935447595645, 62.62260553013973 
-146.8925213765177, 5.563697507608053, 22.20828464219545, -177.9764728291714, 50.204951843441584, 62.623989616281776 
-147.7980083843424, 5.339303022710387, 22.20838862408002, -178.6785533303058, 50.08327392069409, 62.62534458434452 
-148.70430802891715, 5.119485355641239, 22.208486388827094, -179.38000920343535, 49.964336300769084, 62.62667015808564 
-149.61142930707848, 4.904303467127315, 22.20857815891687, 179.91913481912692, 49.84815421850967, 62.627966069543916 
-150.51937939236032, 4.693815356465867, 22.20866415710921, 179.21885475077087, 49.734742549772186, 62.629232058952994 
-151.42816364537177, 4.488078033974735, 22.20874460606678, 178.51912732562818, 49.62411581058479, 62.63046787465396 
-152.33778562588842, 4.28714749302661, 22.208819727980433, 177.81992997418936, 49.516288156246354, 62.63167327300665 
-153.24824710670848, 4.091078681720854, 22.20888974419726, 177.12124079947046, 49.41127338037197, 62.63284801829987 
-154.1595480893249, 3.899925474248145, 22.20895487485192, 176.42303855370108, 49.309084913891404, 62.63399188266113 
-155.07168682146, 3.7137406420047503, 22.209015338501548, 175.72530261550736, 49.20973582400657, 62.63510464596567 
-155.9846598165065, 3.5325758245151846, 22.209071351764944, 175.02801296756368, 49.11323881311393, 62.636186095745174 
-156.89846187491347, 3.3564815002233157, 22.209123128966368, 174.3311501746897, 49.01960621769754, 62.63723602709663 
-157.81308610755414, 3.185506957213478, 22.209170881784424, 173.6346953623682, 48.928850007198115, 62.63825424259106 
-158.72852396110508, 3.0197002639244444, 22.209214818906585, 172.93863019566243, 48.84098178286349, 62.63924055218282 
-159.64476524546373, 2.859108239920101, 22.209255145689724, 172.2429368585104, 48.75601277658566, 62.64019477311946 
-160.56179816322478, 2.7037764267817903, 22.209292063827156, 171.547598033377, 48.673953849729294, 62.64111672985214 
-161.47960934123103, 2.553749059187952, 22.20932577102261, 170.85259688124282, 48.59481549195636, 62.64200625394733 
-162.39818386420896, 2.4090690362473137, 22.20935646067152, 170.15791702191234, 48.51860782005182, 62.64286318399956 
-163.3175053104926, 2.269777893152294, 22.20938432155019, 169.4635425146225, 48.44534057675433, 62.643687365545496 
-164.23755578983432, 2.1359157732194842, 22.209409537513086, 168.76945783893464, 48.37502312959664, 62.644478650979714 
-165.15831598329314, 2.0075214003841633, 22.209432287198716, 168.075647875894, 48.307664469759494, 62.64523689947219 
-166.07976518518748, 1.8846320522154252, 22.209452743744585, 167.3820978894397, 48.243273210943144, 62.64596197688764 
-167.00188134708935, 1.767283533518192, 22.20947107451141, 166.6887935080517, 48.18185758826008, 62.64665375570711 
-167.92464112383345, 1.655510150587737, 22.209487440817114, 165.99572070661816, 48.12342545715263, 62.6473121149518 
-168.84801992150554, 1.5493446861814508, 22.209501997680956, 165.3028657885114, 48.06798429233896, 62.6479369401093 
-169.77199194736957, 1.4488183752713588, 22.209514893577975, 164.6102153678574, 48.01554118679057, 62.648528123062505 
-170.69653026168484, 1.3539608816398156, 22.209526270204265, 163.91775635198667, 47.96610285074445, 62.64908556202123 
-171.62160683135872, 1.2648002753790006, 22.20953626225329, 163.22547592405425, 47.91967561075294, 62.649609161456866 
-172.54719258537372, 1.1813630113531435, 22.209544997203533, 162.53336152581633, 47.876265408773996, 62.65009883203974 
-173.47325747192073, 1.1036739086804437, 22.209552595117827, 161.84140084055244, 47.83587780130446, 62.65055449058014 
-174.39977051716434, 1.0317561312892731, 22.20955916845455, 161.14958177612203, 47.79851795855881, 62.65097605997222 
-175.3266998855603, 0.9656311696009177, 22.209564821891025, 160.45789244814463, 47.76419066369576, 62.65136346914153 
-176.2540129416382, 0.9053188233883986, 22.209569652159225, 159.7663211632931, 47.73290031209476, 62.65171665299607 
-177.18167631315833, 0.850837185858027, 22.209573747894233, 159.0748564026902, 47.7046509106845, 62.652035552380866 
-178.10965595554487, 0.8022026289973425, 22.20957718949532, 158.38348680539846, 47.67944607732506, 62.652320114036314 
-179.03791721749306, 0.7594297902297426, 22.20958004900022, 157.69220115199397, 47.65728904024551, 62.652570290560504 
-179.96642490764458, 0.7225315604128723, 22.209582389972407, 157.00098834821475, 47.63818263753839, 62.65278604037503 
179.10485663778184, 0.6915190732140496, 22.2095842674018, 156.30983740867478, 47.62212931671251, 62.652967327695166 
178.17596348651773, 0.6664016958925237, 22.209585727618787, 155.61873744063456, 47.60913113430501, 62.653114122503865 
177.24693204104986, 0.6471870215143095, 22.209586808221996, 154.92767762781995, 47.59918975555399, 62.653226400529775 
176.31779896882392, 0.6338808626215774, 22.20958753801949, 154.2366472142802, 47.5923064541323, 62.653304143229605 
175.38860113197003, 0.6264872463744108, 22.209587936983905, 153.54563548827724, 47.58848211194342, 62.65334733777427 
174.45937551667717, 0.6250084111786443, 22.209588016221268, 152.85463176619749, 47.587717218979705, 62.653355977039645 
173.53015916234236, 0.629444804809337, 22.20958777795363, 152.16362537647822, 47.59001187324358, 62.65333005960111 
172.60098909062393, 0.6397950840352151, 22.209587215515647, 151.47260564353985, 47.59536578073173, 62.653269589732695 
171.67190223452667, 0.6560561157451035, 22.20958631336499, 150.78156187171655, 47.6037782554825, 62.653174577410034 
170.74293536764776, 0.6782229795732088, 22.209585047106525, 150.09048332917612, 47.61524821968605, 62.65304503831787 
169.81412503371075, 0.7062889720157544, 22.209583383530436, 149.39935923182168, 47.629774203857544, 62.65288099386162 
168.88550747651465, 0.7402456120274098, 22.209581280664025, 148.70817872716643, 47.64735434707223, 62.652682471182935 
167.95711857042286, 0.78008264808166, 22.209578687837233, 148.01693087817307, 47.6679863972624, 62.65244950317978 
167.02899375151446, 0.8257880666752165, 22.209575545761798, 147.32560464704966, 47.69166771157522, 62.65218212853013 
166.1011679495177, 0.8773481022526899, 22.20957178662386, 146.63418887899277, 47.71839525679027, 62.651880391720205 
165.17367552064303, 0.9347472485236, 22.209567334190012, 145.94267228587026, 47.7481656097962, 62.651544343076274 
164.24655018142835, 0.9979682711402734, 22.209562103926515, 145.251043429833, 47.78097495812487, 62.65117403880064 
163.31982494370533, 1.0669922217014092, 22.209556003131702, 144.55929070684823, 47.81681910054157, 62.65076954101134 
162.39353205079223, 1.141798453042558, 22.209548931081173, 143.86740233014373, 47.85569344768998, 62.65033091778576 
161.46770291501227, 1.2223646357716194, 22.20954077918576, 143.17536631355418, 47.89759302278993, 62.64985824320763 
160.54236805663226, 1.3086667760040487, 22.209531431162027, 142.48317045475906, 47.94251246238603, 62.64935159741796 
159.6175570443111, 1.4006792342497643, 22.20952076321496, 141.79080231840234, 47.99044601714537, 62.648811066669275 
158.69329843714044, 1.4983747454007537, 22.209508644232766, 141.09824921908316, 48.0413875527017, 62.64823674338306 
157.76961972835596, 1.6017244397660106, 22.2094949359934, 140.40549820420668, 48.09533055054405, 62.64762872621079 
156.8465472907893, 1.71069786509788, 22.209479493382645, 139.71253603668399, 48.15226810894698, 62.64698712009767 
155.9241063241258, 1.8252630095519917, 22.209462164623346, 139.01934917746894, 48.21219294393999, 62.64631203634978 
155.00232080402597, 1.945386325520796, 22.209442791515535, 138.3259237679199, 48.27509739031296, 62.645603592703644 
154.08121343316225, 2.0710327542793356, 22.209421209687264, 137.63224561197413, 48.34097340265487, 62.644861913398785 
153.16080559421536, 2.2021657513801007, 22.209397248855584, 136.93830015812117, 48.409812556422445, 62.64408712925264 
152.2411173048688, 2.3387473127329397, 22.209370733097398, 136.24407248116185, 48.481606049035356, 62.643279377737954 
151.32216717483237, 2.480738001304717, 22.20934148113003, 135.54954726373845, 48.556344700994636, 62.64243880306221 
150.40397236491935, 2.6280969743727893, 22.209309306600783, 134.8547087776216, 48.634018957020345, 62.641565556249375 
149.48654854819554, 2.780782011265885, 22.209274018385415, 134.15954086473783, 48.714618887205084, 62.6406597952232 
148.5699098732112, 2.9387495415255223, 22.209235420895002, 133.4640269179219, 48.79813418817879, 62.639721684892386 
147.65406892932157, 3.1019546734210572, 22.209193314390717, 132.76814986137762, 48.884554184281185, 62.63875139723709 
146.73903671409454, 3.2703512227515628, 22.20914749530627, 132.07189213082847, 48.97386782873718, 62.63774911139687 
145.8248226027985, 3.443891741868136, 22.209097756577442, 131.3752356533404, 49.06606370483082, 62.63671501375955 
144.9114343199578, 3.622527548850499, 22.20904388797837, 130.6781618267978, 49.16113002707319, 62.63564929805109 
143.9988779129573, 3.806208756772755, 22.208985676464092, 129.9806514990116, 49.25905464235929, 62.634552165426165 
143.08715772767246, 3.994884302993769, 22.20892290651886, 129.28268494643999, 49.35982503110887, 62.63342382455899 
142.17627638609662, 4.188501978408831, 22.20885536050986, 128.58424185249825, 49.46342830838606, 62.6322644917347 
141.26623476593207, 4.387008456600389, 22.208782819045837, 127.8853012854366, 49.569851224992384, 62.631074390940505 
140.35703198210757, 4.5903493228270085, 22.208705061340034, 127.18584167576026, 49.67908016852755, 62.62985375395698 
139.44866537018066, 4.798469102791117, 22.20862186557718, 126.48584079316853, 49.791101164412176, 62.62860282044847 
138.5411304715795, 5.011311291127808, 22.208533009283844, 125.78527572298535, 49.90589987686662, 62.627321838053376 
137.63442102063556, 5.228818379558586, 22.208438269701773, 125.08412284205475, 50.023461609839586, 62.626011062473374 
136.72852893335607, 5.450931884655734, 22.20833742416373, 124.38235779407276, 50.1437713078802, 62.624670757561326 
135.82344429788117, 5.6775923751650375, 22.20823025047122, 123.6799554643251, 50.26681355694693, 62.62330119540835 
134.91915536657004, 5.9087394988363675, 22.208116527273745, 122.9768899538006, 50.39257258514648, 62.62190265642902 
134.01564854965733, 6.144312008713856, 22.207996034449025, 122.2731345526465, 50.52103226339573, 62.62047542944484 
133.1129084104197, 6.384247788839327, 22.207868553483674, 121.56866171293265, 50.652176105999175, 62.61901981176581 
132.2109176617915, 6.628483879325095, 22.207733867853793, 120.86344302068802, 50.78598727113464, 62.617536109269665 
131.30965716436774, 6.876956500753945, 22.207591763405127, 120.15744916717283, 50.92244856123915, 62.6160246364788 
130.40910592573096, 7.129601077867006, 22.20744202873205, 119.45064991934701, 51.06154242328717, 62.61448571663432 
129.50924110104054, 7.386352262501641, 22.207284455555108, 118.74301408949458, 51.20325094895257, 62.61291968176728 
128.61003799482035, 7.647143955744661, 22.207118839096463, 118.03450950396075, 51.34755587464595, 62.61132687276676 
127.71147006388371, 7.911909329267512, 22.20694497845282, 117.3251029709579, 51.49443858141815, 62.60970763944463 
126.81350892133398, 8.180580845813006, 22.206762676965287, 116.61476024739366, 51.643880094720714, 62.60806234059654 
125.91612434157992, 8.453090278805163, 22.20657174258573, 115.90344600467213, 51.795861084013865, 62.606391344059254 
125.01928426630789, 8.729368731055738, 22.20637198823915, 115.19112379341794, 51.95036186221174, 62.60469502676398 
124.12295481135286, 9.0093466525437, 22.20616323218147, 114.4777560070696, 52.10736238495469, 62.602973774785184 
123.22710027441305, 9.292953857245559, 22.205945298352464, 113.76330384428705, 52.26684224969793, 62.6012279833854 
122.3316831435554, 9.58011953899702, 22.205718016723164, 113.04772727011486, 52.4287806946053, 62.599458057054676 
121.4366641064608, 9.870772286368187, 22.20548122363741, 112.33098497584119, 52.59315659723656, 62.597664409545956 
120.54200206036124, 10.16484009653693, 22.20523476214704, 111.61303433748834, 52.75994847301616, 62.595847463904654 
119.64765412262385, 10.462250388146689, 22.204978482340213, 110.89383137286974, 52.929134473470974, 62.59400765249346 
118.7535756419398, 10.76293001313741, 22.20471224166262, 110.17333069714338, 53.10069238422382, 62.59214541701123 
117.85972021007954, 11.066805267539761, 22.204435905230874, 109.45148547679021, 53.27459962272937, 62.590261208506696 
116.96603967417947, 11.373801901225018, 22.204149346137886, 108.72824738194197, 53.45083323573785, 62.58835548738582 
116.07248414952859, 11.683845126604751, 22.20385244574971, 108.00356653697952, 53.62936989647233, 62.58642872341347 
115.17900203282825, 11.99685962627618, 22.203545093993487, 107.27739146932034, 53.81018590150346, 62.58448139570887 
114.2855400159012, 12.312769559610945, 22.203227189636078, 106.54966905630857, 53.99325716730607, 62.582513992734434 
113.39204309983226, 12.631498568286595, 22.20289864055302, 105.82034447011922, 54.17855922648044, 62.58052701227831 
112.4984546095248, 12.952969780762022, 22.202559363987426, 105.08936112058237, 54.36606722362077, 62.57852096143018 
111.60471620866491, 13.277105815699395, 22.20220928679854, 104.3566605958311, 54.55575591081214, 62.576496356550116 
110.71076791508732, 13.603828784337239, 22.201848345699407, 103.62218260067098, 54.747599642737065, 62.574453723230754 
109.81654811654379, 13.933060291820198, 22.20147648748367, 102.88586489256606, 54.941572371370896, 62.572393596251906 
108.92199358687934, 14.264721437493403, 22.201093669240784, 102.14764321513132, 55.13764764024517, 62.5703165195284 
108.02703950262644, 14.598732814170244, 22.200699858559652, 101.40745122901659, 55.33579857825652, 62.56822304605023 
107.13161946003402, 14.935014506384274, 22.20029503372025, 100.66522044006356, 55.53599789299793, 62.566113737815456 
106.23566549255212, 15.27348608763732, 22.199879183872966, 99.92088012461106, 55.738217863587494, 62.563989165755444 
105.33910808880053, 15.61406661665755, 22.19945230920547, 99.17435725182044, 55.9424303329693, 62.56184990965239 
104.44187621105398, 15.956674632682637, 22.19901442109676, 98.42557640288676, 56.148606699659254, 62.55969655804922 
