# MEX_intpoint_lon [deg], MEX_intpoint_lat [deg], MEX_intpoint_angle [deg], TGO_intpoint_lon [deg], TGO_intpoint_lat [deg], TGO_intpoint_angle [deg] 
-104.39211905017919, 20.525517144654586, 22.56863526240974, -164.21805507341435, 59.13142769527848, 62.52936065343078 
-105.29302184823707, 20.144940228079772, 22.56925091987717, -165.01642379644247, 58.91070687247511, 62.531552610993444 
-106.19222029871607, 19.765433487487936, 22.56985540732686, -165.81123408478948, 58.691467336867724, 62.53373896207927 
-107.08981087310971, 19.387087909124443, 22.570448553990484, -166.60259947189425, 58.473744571095104, 62.53591904458687 
-107.98588857022585, 19.0099938043892, 22.571030202623767, -167.3906299090986, 58.25757342935584, 62.538092202848794 
-108.8805468917634, 18.634240829408643, 22.571600209526082, -168.1754318871345, 58.04298815577732, 62.540257787816294 
-109.77387781920756, 18.25991800375842, 22.572158444543636, -168.95710855328605, 57.830022401781754, 62.54241515723684 
-110.66597179190677, 17.88711372830165, 22.572704791056463, -169.73575982435426, 57.61870924249611, 62.5445636758238 
-111.5569176862065, 17.51591580210949, 22.573239145949096, -170.51148249555553, 57.40908119225116, 62.546702715418974 
-112.44680279552247, 17.146411438433088, 22.573761419565173, -171.28437034548364, 57.20117021921188, 62.548831655147104 
-113.33571281124682, 16.778687279697902, 22.57427153564599, -172.05451423726623, 56.995007759180226, 62.550949881563426 
-114.22373180438795, 16.412829411493256, 22.574769431253085, -172.82200221604398, 56.790624728609, 62.55305678879311 
-115.11094220785502, 16.048923375531906, 22.57525505667513, -173.58691960290065, 56.588051536863716, 62.555151778663664 
-115.99742479930548, 15.687054181555764, 22.57572837531911, -174.3493490853706, 56.38731809776788, 62.55723426082946 
-116.88325868448233, 15.327306318166043, 22.576189363586177, -175.10937080464612, 56.188453840465165, 62.559303652889135 
-117.7685212809767, 14.969763762557031, 22.576638010732157, -175.86706243960788, 55.991487719630534, 62.56135938049531 
-118.65328830235711, 14.614509989134936, 22.57707431871307, -176.62249928779536, 55.796448225060985, 62.563400877457276 
-119.53763374261717, 14.261627977003842, 22.57749830201586, -177.37575434343464, 55.603363390674836, 62.56542758583594 
-120.42162986089733, 13.911200216303156, 22.577909987474573, -178.12689837263596, 55.412260802947486, 62.567438956031936 
-121.30534716644686, 13.563308713381529, 22.578309414072237, -178.8759999858712, 55.22316760881008, 62.569434446866424 
-122.18885440379651, 13.21803499479425, 22.578696632728786, -179.62312570783763, 55.03611052303641, 62.57141352565474 
-123.07221853812035, 12.875460110112085, 22.57907170607523, 179.63165995518716, 54.85111583514217, 62.5733756682732 
-123.95550474077142, 12.535664633531246, 22.579434708214524, 178.88829445040022, 54.66820941581952, 62.5753203592189 
-124.83877637498227, 12.198728664275311, 22.57978572446934, 178.1467171158395, 54.4874167229292, 62.57724709166281 
-125.72209498172766, 11.864731825781604, 22.580124851117162, 177.4068691199678, 54.30876280707089, 62.57915536749621 
-126.60552026575235, 11.533753263665966, 22.580452195113065, 176.66869340338351, 54.132272316752356, 62.581044697370395 
-127.48911008177318, 11.20587164246104, 22.580767873800514, 175.93213462256966, 53.95796950317601, 62.58291460073025 
-128.37292042086983, 10.881165141125388, 22.581072014610683, 175.1971390955973, 53.78587822466194, 62.58476460584125 
-129.2570053970845, 10.559711447321607, 22.581364754750517, 174.4636547497006, 53.61602195072453, 62.58659424981049 
-130.1414172342557, 10.24158775046389, 22.581646240880165, 173.73163107064525, 53.44842376581966, 62.58840307860145 
-131.02620625311616, 9.926870733536713, 22.58191662878011, 173.00101905381385, 53.28310637277867, 62.59019064704328 
-131.91142085869078, 9.615636563688502, 22.58217608300842, 172.27177115693556, 53.12009209594462, 62.59195651883401 
-132.79710752803393, 9.307960881605515, 22.582424776548635, 171.54384125438898, 52.959402884025494, 62.59370026653832 
-133.6833107983506, 9.003918789673541, 22.582662890448756, 170.8171845930107, 52.80106031267872, 62.595421471580025 
-134.57007325555026, 8.703584838936623, 22.58289061345178, 170.0917577493448, 52.64508558684072, 62.597119724229124 
-135.457435523286, 8.40703301486415, 22.583108141618354, 169.36751858826963, 52.49149954281442, 62.598794623584155 
-136.34543625253568, 8.114336721939834, 22.583315677941926, 168.64442622294231, 52.340322650127575, 62.60044577754919 
-137.2341121117847, 7.8255687670881935, 22.583513431956977, 167.92244097600292, 52.191575013173804, 62.6020728028066 
-138.12349777787443, 7.540801341956371, 22.583701619340907, 167.20152434198258, 52.04527637264823, 62.6036753247851 
-139.01362592758267, 7.260106004071397, 22.583880461510002, 166.4816389508618, 51.90144610678869, 62.60525297762343 
-139.90452723000516, 6.98355365689551, 22.584050185210035, 165.76274853272844, 51.760103232433565, 62.60680540413014 
-140.79623033981068, 6.711214528804341, 22.58421102210215, 165.04481788348502, 51.6212664059065, 62.608332255739235 
-141.68876189144314, 6.443158151015443, 22.58436320834436, 164.32781283155896, 51.48495392373803, 62.60983319246222 
-142.5821464943468, 6.1794533344970155, 22.58450698416949, 163.61170020556975, 51.35118372323398, 62.61130788283672 
-143.47640672929265, 5.920168145889306, 22.584642593459847, 162.89644780290968, 51.21997338289965, 62.612756003871425 
-144.37156314588432, 5.665369882473724, 22.584770283319397, 162.1820243591964, 51.09134012272909, 62.614177240988376 
-145.26763426132297, 5.415125046227418, 22.584890303643874, 161.46839951855685, 50.965300804367985, 62.6155712879621 
-146.16463656051195, 5.169499317003557, 22.585002906689468, 160.7555438047046, 50.841871931158614, 62.61693784685609 
-147.06258449758127, 4.9285575248802616, 22.58510834664057, 160.04342859277298, 50.72106964807493, 62.61827662795673 
-147.96149049891167, 4.692363621723964, 22.5852068791773, 159.33202608186943, 50.6029097415557, 62.619587349705235 
-148.86136496773827, 4.460980652015209, 22.585298761043177, 158.62130926831617, 50.48740763924308, 62.620869738627086 
-149.7622162904113, 4.234470722987971, 22.58538424961372, 157.91125191954552, 50.37457840963422, 62.62212352926008 
-150.6640508443919, 4.012894974135806, 22.585463602466376, 157.20182854861793, 50.26443676165268, 62.62334846408035 
-151.56687300805655, 3.7963135461409006, 22.585537076952413, 156.4930143893332, 50.156997044146706, 62.6245442934272 
-152.47068517238355, 3.5847855492844074, 22.585604929771385, 155.78478537190608, 50.052273245320855, 62.62571077542668 
-153.3754877545914, 3.378369031398905, 22.585667416548606, 155.07711809917842, 49.95027899210746, 62.626847675914085 
-154.28127921379448, 3.177120945426281, 22.58572479141638, 154.3699898233421, 49.85102754948396, 62.627954768355636 
-155.1880560687403, 2.9810971166461586, 22.585777306599308, 153.66337842314695, 49.75453181974232, 62.62903183376977 
-156.09581291768615, 2.7903522096425486, 22.585825212004405, 152.9572623815691, 49.66080434171589, 62.63007866064767 
-157.00454246046937, 2.604939695078038, 22.585868754816488, 152.25162076391763, 49.56985728996988, 62.631095044874066 
-157.91423552282095, 2.4249118163467176, 22.585908179099416, 151.54643319635585, 49.48170247396017, 62.632080789647574 
-158.8248810829659, 2.2503195561788454, 22.585943725403595, 150.84167984481684, 49.396351337166216, 62.633035705401674 
-159.7364663005486, 2.0812126032714504, 22.58597563038041, 150.13734139429215, 49.31381495620268, 62.63395960972574 
-160.64897654791565, 1.9176393190206418, 22.586004126404045, 149.4333990284742, 49.234104039914804, 62.634852327286886 
-161.56239544378076, 1.7596467044323456, 22.58602944120112, 148.72983440973343, 49.157228928462224, 62.63571368975242 
-162.4767048892911, 1.6072803672890834, 22.58605179748873, 148.02662965941224, 49.08319959239552, 62.63654353571353 
-163.39188510650678, 1.4605844896509856, 22.586071412621305, 147.32376733841818, 49.012025631730005, 62.637341710609775 
-164.30791467929694, 1.319601795769834, 22.586088498246834, 146.62123042809947, 48.943716275020776, 62.63810806665501 
-165.2247705966496, 1.1843735204949224, 22.586103259972745, 145.9190023113875, 48.87828037844314, 62.638842462765055 
-166.14242829838344, 1.0549393782494345, 22.586115897042117, 145.21706675419, 48.81572642488207, 62.63954476448666 
-167.06086172324268, 0.9313375326557998, 22.58612660202045, 144.515407887021, 48.75606252303447, 62.6402148439284 
-167.9800433593468, 0.8136045668877792, 22.586135560493535, 143.81401018685267, 48.69929640652766, 62.6408525796936 
-168.89994429695972, 0.7017754548260626, 22.58614295077669, 143.1128584591753, 48.645435433057514, 62.64145785681545 
-169.82053428353413, 0.5958835330930815, 22.586148943635973, 142.411937820253, 48.59448658354924, 62.64203056669409 
-170.74178178097833, 0.4959604740413167, 22.586153702021473, 141.71123367956162, 48.5464564613441, 62.64257060703646 
-171.66365402508487, 0.4020362597672919, 22.586157380813244, 141.0107317223967, 48.501351291414565, 62.643077881798355 
-172.58611708705203, 0.3141391572219157, 22.5861601265801, 140.31041789264026, 48.45917691961091, 62.64355230112947 
-173.50913593702066, 0.2322956944850438, 22.58616207735167, 139.61027837567417, 48.41993881194165, 62.64399378132095 
-174.43267450954178, 0.1565306382697888, 22.58616336240391, 138.9102995814296, 48.38364205389017, 62.64440224475598 
-175.35669577088186, 0.08686697271921728, 22.58616410205848, 138.2104681275615, 48.35029134976991, 62.64477761986335 
-176.28116178806596, 0.023325879554801324, 22.58616440749618, 137.51077082273812, 48.31989102211999, 62.645119841074134 
-177.20603379955114, -0.03407328036721512, 22.58616438058474, 136.81119465003476, 48.292445011143336, 62.645428848781485 
-178.1312722874166, -0.08531298403914087, 22.586164113721054, 136.1117267504229, 48.26795687418902, 62.64570458930392 
-179.0568370509501, -0.13037756177621676, 22.58616368968834, 135.412354406344, 48.246429785280355, 62.645947014851664 
-179.98268728150438, -0.1692532111375814, 22.586163181528118, 134.71306502535992, 48.22786653469033, 62.6461560834967 
179.09121836150734, -0.20192800925355095, 22.586162652427323, 134.01384612386929, 48.21226952856552, 62.646331759146186 
178.16492167361417, -0.22839192352339427, 22.586162155620805, 133.3146853108821, 48.19964078859967, 62.64647401151938 
177.238464827428, -0.24863682065245069, 22.586161734309115, 132.61557027184344, 48.18998195175796, 62.646582816128415 
176.31189029406707, -0.26265647400215136, 22.586161421591807, 131.91648875249686, 48.18329427005271, 62.646658154262255 
175.38524076400967, -0.2704465692313922, 22.586161240416427, 131.2174285427798, 48.17957861037132, 62.64670001297491 
174.45855906752797, -0.27200470821264733, 22.58616120354309, 130.5183774607421, 48.17883545435664, 62.646708385076785 
173.53188809485374, -0.26733041121135526, 22.586161313524794, 129.81932333647916, 48.18106489834058, 62.646683269130264 
172.60527071622894, -0.2564251173221271, 22.58616156270351, 129.12025399607134, 48.18626665333075, 62.64662466944856 
171.67874970199492, -0.2392921831604552, 22.586161933221973, 128.42115724552136, 48.19444004505042, 62.646532596098695 
170.75236764287303, -0.21593687981385123, 22.58616239705121, 127.72202085468122, 48.20558401403147, 62.646407064907834 
169.82616687058953, -0.18636638806133538, 22.586162916033814, 127.02283254116001, 48.21969711576037, 62.64624809747373 
168.90018937899555, -0.15058979187535543, 22.5861634419428, 126.32357995420463, 48.23677752087638, 62.64605572117849 
167.9744767458309, -0.10861807022523925, 22.586163916556018, 125.62425065854441, 48.256823015421695, 62.64582996920625 
167.04907005527798, -0.0604640872061042, 22.586164271746078, 124.92483211819108, 48.2798310011426, 62.64557088056436 
166.1240098214478, -0.00614258052216181, 22.58616442958558, 124.22531168018568, 48.30579849584085, 62.645278500108105 
165.1993359129377, 0.05432985164214995, 22.58616430246751, 123.52567655828297, 48.33472213377421, 62.6449528785692 
164.27508747859343, 0.12093476532516509, 22.58616379324077, 122.82591381656471, 48.36659816610478, 62.644594072587424 
163.3513028746056, 0.19365188702266134, 22.586162795360483, 122.12601035297222, 48.40142246139405, 62.64420214474582 
162.4280195930634, 0.27245913140764455, 22.586161193052973, 121.42595288274919, 48.439190506142786, 62.64377716360924 
161.50527419208225, 0.3573326204847485, 22.586158861495218, 120.72572792178441, 48.479897405374466, 62.64331920376608 
160.58310222761682, 0.4482467041248636, 22.586155667008484, 120.0253217698452, 48.52353788326007, 62.64282834587319 
159.66153818706232, 0.5451739819222946, 22.58615146726591, 119.32472049369052, 48.57010628378246, 62.642304676703816 
158.74061542474152, 0.648085326313296, 22.58614611151371, 118.62390991005392, 48.61959657143814, 62.641748289198425 
157.82036609936492, 0.7569499068920356, 22.58613944080586, 117.9228755684849, 48.67200233197404, 62.64115928251859 
156.90082111354715, 0.8717352158570131, 22.58613128825172, 117.22160273403773, 48.72731677315699, 62.64053776210346 
155.98201005545064, 0.992407094518897, 22.586121479276503, 116.52007636979604, 48.785532725573105, 62.63988383972867 
155.06396114262316, 1.1189297607981081, 22.58610983189406, 115.81828111922103, 48.84664264345437, 62.63919763356792 
154.146701168085, 1.2512658376389902, 22.586096156991662, 115.1162012883109, 48.91063860552964, 62.638479268257 
153.23025544871447, 1.3893763822655116, 22.586080258626566, 114.41382082755867, 48.97751231589671, 62.6377288749598 
152.3146477759717, 1.5332209162022128, 22.586061934333696, 113.71112331369457, 49.04725510491232, 62.636946591436214 
151.3999003689923, 1.6827574559831118, 22.586040975444195, 113.00809193119962, 49.1198579300968, 62.636132562112486 
150.48603383007472, 1.837942544470386, 22.586017167414496, 112.30470945357516, 49.19531137704957, 62.63528693815275 
149.57306710257626, 1.9987312827043047, 22.585990290165256, 111.60095822435402, 49.273605660371885, 62.634409877532185 
148.6610174312254, 2.1650773622055497, 22.585960118429913, 110.89682013783674, 49.35473062459294, 62.633501545112175 
147.74990032484985, 2.3369330976511216, 22.58592642211229, 110.19227661953741, 49.438675745095225, 62.63256211271583 
146.83972952151288, 2.5142494598453107, 22.585888966652806, 109.48730860632138, 49.52543012903486, 62.63159175920517 
145.93051695604203, 2.6969761089078994, 22.58584751340281, 108.78189652621724, 49.61498251625261, 62.630590670558966 
145.02227272992891, 2.885061427602136, 22.58580182000654, 108.07602027788504, 49.70732128017098, 62.629559039951246 
144.11500508357048, 3.0784525547265695, 22.585751640790185, 107.3696592097206, 49.80243442867255, 62.62849706783049 
143.20872037081736, 3.277095418495395, 22.585696727157604, 106.66279209857684, 49.90030960495473, 62.62740496199875 
142.3034230357876, 3.4809347698339477, 22.585636827992083, 105.95539712808025, 50.00093408835579, 62.6262829376913 
141.3991155918998, 3.6899142155170654, 22.585571690063603, 105.24745186652132, 50.10429479514697, 62.62513121765595 
140.4957986030731, 3.9039762510801155, 22.585501058441274, 104.53893324429565, 50.210378279284875, 62.62395003223204 
139.59347066703856, 4.123062293434101, 22.585424676910044, 103.82981753087255, 50.31917073311899, 62.622739619429275 
138.69212840069994, 4.347112713118579, 22.585342288391498, 103.12008031126562, 50.43065798804792, 62.621500225005285 
137.79176642747996, 4.5760668661280075, 22.585253635367906, 102.40969646198018, 50.54482551511877, 62.620232102542836 
136.8923773665837, 4.809863125249459, 22.58515846030914, 101.69864012641007, 50.661658425562855, 62.61893551352573 
135.99395182410774, 5.048438910852241, 22.585056506101825, 100.98688468965601, 50.781141471261805, 62.61761072741314 
135.09647838592133, 5.291730721071962, 22.584947516480156, 100.27440275273611, 50.903259045136885, 62.6162580217128 
134.19994361224403, 5.539674161334517, 22.584831236457788, 99.56116610615774, 51.02799518145478, 62.61487768205229 
133.3043320338416, 5.792203973167659, 22.584707412760395, 98.84714570281936, 51.1553335560427, 62.613470002248235 
132.40962614976158, 6.049254062250794, 22.58457579425802, 98.13231163020843, 51.28525748640524, 62.612035284373555 
131.51580642652922, 6.310757525655817, 22.584436132396977, 97.41663308186133, 51.41774993173532, 62.61057383882216 
130.62285129872214, 6.5766466782349875, 22.584288181630498, 96.7000783280485, 51.55279349281131, 62.609085984371276 
129.73073717084543, 6.846853078113867, 22.5841316998477, 95.98261468564787, 51.690370411772065, 62.60757204824071 
128.8394384204251, 7.121307551250689, 22.58396644880017, 95.26420848716634, 51.8304625717612, 62.60603236614923 
127.94892740224225, 7.399940215025461, 22.5837921945258, 94.54482504886924, 51.97305149643205, 62.60446728236786 
127.05917445362893, 7.682680500825233, 22.58360870776907, 93.82442863797462, 52.118118349303735, 62.60287714976952 
126.17014790074892, 7.9694571755943615, 22.583415764397472, 93.10298243886764, 52.26564393295933, 62.601262329875354 
125.28181406578862, 8.260198362320981, 22.58321314581332, 92.38044851828948, 52.4156086880758, 62.59962319289679 
124.39413727498483, 8.554831559433723, 22.583000639360495, 91.65678778945156, 52.56799269227582, 62.597960117773994 
123.50707986741892, 8.853283659084775, 22.58277803872568, 90.93195997502542, 52.72277565879071, 62.59627349221011 
122.62060220450918, 9.155480964298171, 22.582545144333274, 90.20592356895573, 52.87993693492356, 62.59456371270059 
121.73466268013671, 9.461349204964103, 22.5823017637338, 89.47863579704152, 53.039455500301045, 62.592831184558754 
120.84921773134252, 9.770813552662744, 22.582047711985084, 88.75005257622944, 53.201309964901974, 62.591076321935674 
119.96422184953798, 10.083798634302834, 22.581782812025654, 88.02012847255955, 53.36547856685048, 62.58929954783583 
119.07962759217355, 10.400228544562822, 22.581506895040164, 87.28881665770209, 53.53193916996054, 62.58750129412727 
118.19538559481532, 10.720026857124084, 22.581219800815884, 86.5560688640218, 53.700669261018994, 62.585682001546516 
117.31144458358281, 11.043116634687927, 22.580921378090267, 85.82183533810273, 53.871645946792455, 62.58384211969795 
116.42775138790563, 11.369420437770062, 22.580611484888777, 85.08606479266467, 54.044845950744296, 62.58198210704778 
115.54425095356177, 11.698860332267719, 22.580289988852698, 84.34870435679942, 54.220245609445875, 62.580102430912014 
114.66088635596431, 12.031357895797026, 22.57995676755641, 83.60969952445225, 54.39782086866674, 62.57820356743848 
113.77759881366913, 12.366834222799246, 22.57961170881377, 82.86899410107117, 54.577547279126975, 62.576286001582794 
112.89432770208056, 12.705209928416842, 22.57925471097308, 82.12653014834346, 54.7593999918947, 62.57435022707832 
112.01101056733798, 13.046405151141418, 22.578885683200372, 81.38224792693649, 54.94335375341041, 62.57239674639925 
111.12758314037124, 13.390339554237517, 22.578504545750512, 80.63608583715617, 55.12938290011985, 62.570426070717836 
110.2439793511192, 13.736932325947603, 22.578111230225797, 79.88798035743368, 55.31746135269524, 62.568438719854335 
109.36013134291088, 14.08610217848503, 22.577705679821676, 79.13786598054804, 55.507562609824674, 62.56643522222094 
108.47596948701506, 14.43776734582349, 22.5772878495593, 78.38567514748836, 55.69965974154802, 62.564416114758096 
107.59142239737088, 14.791845580292447, 22.57685770650449, 77.63133817885752, 55.89372538211676, 62.56238194286458 
106.7064169455173, 15.148254147989956, 22.57641522997287, 76.87478320371441, 56.08973172235436, 62.56033326032019 
105.82087827574728, 15.506909823025188, 22.575960411720885, 76.11593608575026, 56.28765050149219, 62.558270629201274 
104.9347298205181, 15.86772888060484, 22.57549325612237, 75.3547203466897, 56.48745299845549, 62.55619461978921 
