# MEX_intpoint_lon [deg], MEX_intpoint_lat [deg], MEX_intpoint_angle [deg], TGO_intpoint_lon [deg], TGO_intpoint_lat [deg], TGO_intpoint_angle [deg] 
-104.65221662451603, 20.58429291145279, 22.727318542027245, -173.83473667225508, 58.97069451824438, 62.532782803303945 
-105.54819181210132, 20.19559257887116, 22.727953603107593, -174.62411342784367, 58.745170941811736, 62.53502965584362 
-106.44245835036116, 19.8080086957962, 22.72857693441537, -175.4100060396114, 58.52118270814287, 62.53727061758236 
-107.33511609090066, 19.421633064164798, 22.729188360119082, -176.19252816631985, 58.29876507591425, 62.53950501012371 
-108.22626330692277, 19.036556804443794, 22.72978771859012, -176.97178978916236, 58.07795268815285, 62.541732161841296 
-109.11599667181851, 18.652870377162632, 22.7303748624222, -177.7478973409448, 57.85877959049239, 62.54395140806774 
-110.00441123896783, 18.270663603503845, 22.730949658433804, -178.52095383036038, 57.64127924840012, 62.546162091275484 
-110.8916004226104, 17.89002568491803, 22.73151198765338, -179.2910589615286, 57.42548456342437, 62.54836356124996 
-111.7776559796555, 17.511045221731823, 22.732061745287663, 179.94169075103156, 57.21142788851021, 62.55055517525454 
-112.66266799231114, 17.133810230719625, 22.732598840672882, 179.1772018718283, 56.9991410424287, 62.552736298187824 
-113.54672485142154, 16.75840816161158, 22.733123197209277, 178.4153839380586, 56.788655323362356, 62.554906302732824 
-114.42991324041252, 16.38492591251218, 22.73363475227881, 177.65614935734519, 56.580001521687834, 62.55706456949826 
-115.31231811975275, 16.013449844205635, 22.73413345714633, 176.89941330939112, 56.37320993199463, 62.55921048715204 
-116.19402271184887, 15.644065793325474, 22.73461927684439, 176.14509365139952, 56.16831036437667, 62.56134345254671 
-117.07510848629957, 15.27685908436776, 22.735092190041776, 175.39311082710958, 55.96533215503177, 62.56346287083725 
-117.95565514544447, 14.911914540528254, 22.735552188896104, 174.64338777930354, 55.7643041762025, 62.56556815559094 
-118.83574061014887, 14.549316493345868, 22.735999278890564, 173.8958498656449, 55.565254845490095, 62.56765872888961 
-119.7154410057767, 14.189148791135455, 22.736433478655197, 173.15042477771155, 55.36821213457149, 62.56973402142413 
-120.59483064830843, 13.831494806194929, 22.736854819772862, 172.40704246309232, 55.17320357734855, 62.571793472581334 
-121.47398203057085, 13.476437440772512, 22.737263346570206, 171.66563505041933, 54.980256277556336, 62.573836530523494 
-122.35296580855106, 13.124059131781653, 22.73765911589394, 170.9261367772139, 54.789396915857075, 62.57586265226029 
-123.23185078777522, 12.774441854252064, 22.738042196872787, 170.18848392042693, 54.60065175644409, 62.57787130371339 
-124.1107039097385, 12.427667123507087, 22.738412670665305, 169.45261472955963, 54.414046653179795, 62.57986195977416 
-124.98959023838049, 12.083815996058458, 22.738770630194047, 168.71846936225444, 54.22960705529003, 62.58183410435367 
-125.86857294660504, 11.742969069211398, 22.739116179866457, 167.9859898222504, 54.047358012636444, 62.58378723042629 
-126.74771330285188, 11.40520647937405, 22.739449435282722, 167.25511989960037, 53.86732418058729, 62.58572084006605 
-127.62707065773172, 11.070607899066745, 22.739770522931106, 166.52580511305248, 53.68952982450653, 62.58763444447629 
-128.50670243074325, 10.739252532628413, 22.740079579871242, 165.7979926545014, 53.513998823879675, 62.58952756401309 
-129.38666409709586, 10.411219110618488, 22.740376753405574, 165.0716313354185, 53.34075467609453, 62.591399728201644 
-130.26700917466786, 10.08658588291491, 22.740662200739667, 164.34667153517424, 53.16982049989383, 62.59325047574686 
-131.14778921113466, 9.765430610509824, 22.74093608863163, 163.62306515116913, 53.00121903851628, 62.59507935453757 
-132.0290537713068, 9.447830556007084, 22.74119859303125, 162.90076555069268, 52.834972662541674, 62.59688592164477 
-132.91085042472324, 9.133862472826786, 22.74144989870926, 162.17972752443387, 52.671103372455015, 62.59866974331418 
-133.79322473354873, 8.823602593124544, 22.741690198877265, 161.45990724156908, 52.50963280094432, 62.600430394953044 
-134.67622024083, 8.517126614434929, 22.74191969479876, 160.74126220635634, 52.35058221494564, 62.602167461111556 
-135.55987845916889, 8.214509685050519, 22.7421385953919, 160.0237512161686, 52.19397251744897, 62.60388053545905 
-136.44423885987516, 7.915826388150332, 22.74234711682441, 159.30733432090045, 52.03982424907729, 62.60556922075498 
-137.32933886266474, 7.6211507246936225, 22.74254548210122, 158.59197278368572, 51.888157589451495, 62.60723312881521 
-138.21521382597408, 7.330556095097172, 22.7427339206454, 157.87762904286697, 51.738992358352704, 62.60887188047345 
-139.10189703796325, 7.0441152797167215, 22.74291266787289, 157.16426667515844, 51.5923480166933, 62.61048510553838 
-139.9894197082839, 6.761900418155698, 22.743081964761675, 156.45185035994845, 51.448243667307814, 62.61207244274629 
-140.8778109606917, 6.483982987426724, 22.74324205741586, 155.74034584468794, 51.30669805557391, 62.61363353970987 
-141.76709782658378, 6.210433778994201, 22.743393196625302, 155.0297199113154, 51.16772956987371, 62.61516805286307 
-142.6573052395448, 5.941322874728819, 22.7435356374214, 154.31994034366932, 51.03135624190531, 62.616675647402204 
-143.5484560309873, 5.676719621807453, 22.743669638629473, 153.61097589584224, 50.89759574685375, 62.61815599722377 
-144.44057092697244, 5.416692606594847, 22.74379546241857, 152.90279626143206, 50.76646540343056, 62.61960878485909 
-145.33366854629833, 5.1613096275461645, 22.743913373849043, 152.19537204364815, 50.63798217379075, 62.62103370140578 
-146.2277653999447, 4.910637667172261, 22.74402364041866, 151.48867472623178, 50.51216266333563, 62.62243044645669 
-147.12287589196248, 4.664742863112447, 22.744126531607783, 150.78267664515164, 50.38902312040959, 62.62379872802603 
-148.01901232189527, 4.423690478362361, 22.744222318424182, 150.07735096103787, 50.26857943589893, 62.62513826247354 
-148.9161848888216, 4.187544870707214, 22.744311272948206, 149.37267163231817, 50.15084714274013, 62.62644877442616 
-149.81440169710345, 3.956369461413882, 22.744393667878757, 148.6686133890227, 50.03584141534523, 62.62772999669808 
-150.71366876392682, 3.7302267032375847, 22.744469776080727, 147.965151707224, 49.92357706895121, 62.62898167020919 
-151.61399002871593, 3.5091780478021164, 22.74453987013456, 147.26226278408222, 49.814068558900416, 62.63020354390179 
-152.51536736450353, 3.2932839124149553, 22.744604221888437, 146.5599235134641, 49.70732997985877, 62.631395374656506 
-153.41780059133245, 3.0826036463813704, 22.74466310201369, 145.85811146210804, 49.603375064978025, 62.63255692720694 
-154.32128749176474, 2.8771954968840467, 22.744716779564104, 145.15680484630775, 49.50221718500854, 62.63368797405357 
-155.22582382856712, 2.6771165744972496, 22.74476552153961, 144.4559825090879, 49.40386934736844, 62.63478829537732 
-156.13140336463945, 2.4824228184068176, 22.74480959245493, 143.75562389784653, 49.30834419517514, 62.635857678952526 
-157.03801788524666, 2.2931689614094513, 22.744849253913884, 143.05570904244078, 49.215654006244804, 62.636895920060006 
-157.9456572226106, 2.109408494766714, 22.744884764189703, 142.3562185336924, 49.125810692065194, 62.637902821400075 
-158.8543092829111, 1.9311936329911044, 22.744916377812096, 141.65713350229106, 49.038825796747275, 62.63887819300604 
-159.76396007574073, 1.758575278643116, 22.744944345161517, 140.95843559807417, 48.95471049596044, 62.639821852157986 
-160.67459374605033, 1.5916029872197024, 22.744968912071204, 140.26010696966355, 48.873475595856625, 62.64073362329744 
-161.58619260861525, 1.4303249322158422, 22.74499031943748, 139.56213024443892, 48.795131531987614, 62.64161333794288 
-162.49873718504568, 1.2747878704418623, 22.745008802838854, 138.86448850882988, 48.71968836822048, 62.64246083460637 
-163.4122062433564, 1.1250371076799346, 22.74502459216444, 138.16716528890896, 48.647155795655316, 62.64327595871149 
-164.32657684010266, 0.981116464763693, 22.745037911252208, 137.47014453126778, 48.57754313154952, 62.64405856251278 
-165.2418243650815, 0.8430682441652775, 22.745048977537405, 136.77341058416096, 48.51085931825277, 62.64480850501677 
-166.15792258858912, 0.7109331971738873, 22.74505800171183, 136.07694817890157, 48.44711292215643, 62.64552565190482 
-167.0748437112152, 0.584750491749687, 22.74506518739425, 135.3807424114928, 48.38631213266126, 62.646209875458176 
-167.9925584161482, 0.4645576811364321, 22.745070730812415, 134.6847787244823, 48.328464761166885, 62.6468610544849 
-168.91103592395405, 0.35039067331502655, 22.745074820497216, 133.98904288902426, 48.27357824008644, 62.64747907424952 
-169.8302440497841, 0.24228370137922198, 22.74507763698918, 133.2935209871365, 48.22165962188964, 62.6480638264046 
-170.75014926295725, 0.1402692949130243, 22.74507935255791, 132.5981993941397, 48.17271557817742, 62.648615208925605 
-171.67071674885293, 0.044378252447517995, 22.745080130934678, 131.90306476126614, 48.12675239879078, 62.64913312604801 
-172.59191047304313, -0.04536038492717765, 22.745080127058678, 131.2081039984261, 48.08377599095706, 62.64961748820758 
-173.51369324758113, -0.12891935872178023, 22.74507948683705, 130.51330425712075, 48.04379187847574, 62.6500682119836 
-174.43602679935807, -0.20627321690904712, 22.745078346919282, 129.8186529134899, 48.00680520094657, 62.650485220045304 
-175.3588718404285, -0.2773983364190226, 22.74507683448603, 129.1241375514843, 47.97282071304208, 62.65086844110153 
-176.28218814019863, -0.3422729442043248, 22.74507506705284, 128.42974594615168, 47.941842783826736, 62.651217809853776 
-177.20593459936316, -0.4008771368150371, 22.745073152288846, 127.73546604702697, 47.91387539612456, 62.65153326695273 
-178.130069325469, -0.45319289842678695, 22.745071187850886, 127.04128596161651, 47.888922145937165, 62.65181475895832 
-179.05454970997772, -0.4992041172695305, 22.745069261233038, 126.34719393896651, 47.866986241913665, 62.652062238303394 
-179.9793325066911, -0.5388966004091948, 22.745067449632007, 125.65317835330706, 47.84807050487416, 62.65227566326137 
179.0956260886, -0.5722580868386687, 22.74506581982834, 124.95922768776198, 47.832177367387864, 62.65245499791723 
178.17037035739042, -0.5992782588395448, 22.745064428083722, 124.26533051811619, 47.819308873407266, 62.652600212142794 
177.2449449768099, -0.6199487515810611, 22.745063320054538, 123.5714754966311, 47.80946667795912, 62.65271128157559 
176.31939493720122, -0.6342631609275555, 22.7450625307217, 122.8776513359001, 47.80265204689332, 62.65278818760191 
175.39376545908624, -0.6422170494313768, 22.745062084336908, 122.18384679273521, 47.79886585669015, 62.652830917343636 
174.46810190968057, -0.6438079504931583, 22.74506199438542, 121.49005065207677, 47.7981085943265, 62.65283946364917 
173.54244971912007, -0.6390353706771708, 22.74506226356531, 120.79625171091749, 47.800380357201476, 62.652813825088515 
172.61685429656376, -0.627900790174734, 22.74506288378336, 120.10243876223268, 47.80568085312148, 62.65275400595202 
171.69136094633788, -0.6104076614143048, 22.745063836167475, 119.40860057890877, 47.814009400344915, 62.65266001625373 
170.76601478428603, -0.5865614058224725, 22.745065091095658, 118.714725897661, 47.825364927686245, 62.652531871738134 
169.8408606544892, -0.5563694087454535, 22.74506660824152, 118.02080340293267, 47.8397459746794, 62.652369593891464 
168.9159430465179, -0.5198410125463366, 22.74506833663623, 117.32682171076733, 47.85715069179969, 62.652173209956636 
167.99130601337623, -0.4769875078986534, 22.745070214746843, 116.63276935264517, 47.877576840744084, 62.65194275295238 
167.0669930902947, -0.4278221233021484, 22.745072170570882, 115.93863475927571, 47.90102179476867, 62.651678261696155 
166.14304721452461, -0.37236001285186626, 22.745074121747134, 115.24440624433721, 47.92748253908262, 62.651379780830986 
165.21951064628303, -0.3106182422967459, 22.74507597568231, 114.55007198815495, 47.95695567129763, 62.6510473608562 
164.29642489099137, -0.24261577342866486, 22.745077629693647, 113.85562002130851, 47.98943740193135, 62.650681058161716 
163.37383062294592, -0.1683734468477352, 22.745078971167093, 113.16103820815943, 48.02492355496357, 62.65028093506619 
162.45176761055177, -0.08791396315400364, 22.745079877730955, 112.46631423028937, 48.06340956844366, 62.64984705985886 
161.5302746432459, -0.0012618626200512546, 22.74508021744467, 111.77143556983977, 48.10489049514743, 62.64937950684457 
160.60938946022603, 0.0915564965970262, 22.745079849002643, 111.07638949274205, 48.14936100328147, 62.64887835639258 
159.68914868109712, 0.1905129616420969, 22.74507862195258, 110.38116303182917, 48.1968153772332, 62.648343694988455 
158.76958773853679, 0.2955776094811369, 22.745076376928402, 109.68574296981721, 48.247247518364105, 62.64777561528927 
157.85074081307414, 0.4067187726841513, 22.74507294589708, 108.99011582214638, 48.30065094584409, 62.647174216181966 
156.93264077006796, 0.5239030664001081, 22.74506815241929, 108.29426781967015, 48.35701879752428, 62.646539602844435 
156.01531909896025, 0.6470954164494, 22.74506181192343, 107.59818489118072, 48.41634383084548, 62.64587188680981 
155.09880585487426, 0.7762590884571369, 22.745053731992734, 106.90185264575874, 48.47861842377984, 62.645171186033174 
154.18312960261454, 0.9113557179485803, 22.745043712664923, 106.20525635493453, 48.54383457580236, 62.64443762496081 
153.26831736312016, 1.0523453413262698, 22.745031546744244, 105.50838093464802, 48.61198390888917, 62.643671334602224 
152.35439456241076, 1.1991864276471078, 22.74501702012526, 104.81121092699347, 48.68305766853951, 62.642872452603925 
151.44138498305793, 1.3518359111165767, 22.74499991212808, 104.11373048173495, 48.75704672481751, 62.642041123325676 
150.5293107182041, 1.5102492242164647, 22.744979995844588, 103.41592333757785, 48.83394157341053, 62.64117749791838 
149.61819212814336, 1.6743803313820673, 22.7449570384951, 102.71777280318106, 48.9137323367, 62.6402817344041 
148.70804779946886, 1.8441817631446316, 22.744930801795167, 102.0192617378935, 48.996408764840965, 62.63935399775715 
147.79889450678434, 2.0196046506549217, 22.74490104233185, 101.32037253219887, 49.08196023684599, 62.63839445998709 
146.8907471769683, 2.2005987605041546, 22.744867511949057, 100.62108708785077, 49.170375761669376, 62.63740330022245 
145.98361885597117, 2.387112529759302, 22.744829958141455, 99.92138679767993, 49.26164397928706, 62.63638070479585 
145.0775206781197, 2.5790931011303937, 22.74478812445639, 99.2212525250551, 49.35575316176744, 62.635326867329695 
144.17246183789388, 2.7764863581889796, 22.744741750903298, 98.52066458297716, 49.45269121432874, 62.63424198882252 
143.26844956413666, 2.9792369605578193, 22.744690574370054, 97.81960271278628, 49.55244567637729, 62.6331262777359 
142.3654890966484, 3.1872883789938276, 22.74463432904574, 97.11804606246018, 49.65500372252211, 62.63197995008132 
141.46358366511404, 3.400582930287708, 22.744572746849283, 96.41597316448131, 49.7603521635601, 62.63080322950723 
140.56273447030415, 3.61906181190597, 22.744505557863278, 95.71336191324893, 49.868477447426464, 62.62959634738577 
139.6629406674863, 3.842665136302744, 22.74443249077263, 95.01018954201197, 49.97936566010438, 62.62835954289919 
138.7641993519784, 4.0713319648314386, 22.744353273307233, 94.30643259929664, 50.093002526488334, 62.627093063125365 
137.8665055467725, 4.305000341188298, 22.744267632688267, 93.60206692480206, 50.20937341119467, 62.62579716312278 
136.9698521921524, 4.543607324322532, 22.744175296077387, 92.8970676247361, 50.328463319313066, 62.62447210601405 
136.07423013722644, 4.787089020750437, 22.744075991028286, 92.19140904656152, 50.45025689709252, 62.6231181630685 
135.1796281332934, 5.035380616213125, 22.743969445940103, 91.48506475312269, 50.57473843255482, 62.62173561378291 
134.28603282895807, 5.288416406620756, 22.743855390511854, 90.77800749612, 50.701891856028624, 62.62032474596071 
133.39342876690998, 5.546129828228359, 22.743733556197604, 90.07020918889957, 50.83170074059687, 62.61888585578894 
132.5017983822789, 5.808453486991741, 22.743603676661476, 89.3616408785222, 50.964148302449935, 62.617419247913304 
131.6111220024791, 6.075319187054161, 22.74346548823213, 88.65227271707649, 51.09921740113681, 62.615925235510666 
130.72137784845344, 6.346657958317873, 22.743318730355924, 87.94207393219676, 51.23689053970631, 62.61440414035872 
129.8325420372301, 6.62240008305706, 22.7431631460484, 87.23101279674724, 51.37714986472979, 62.612856292903054 
128.94458858570272, 6.902475121531771, 22.74299848234316, 86.51905659762987, 51.51997716619707, 62.61128203232098 
128.0574894155483, 7.186811936565054, 22.742824490737924, 85.80617160367339, 51.66535387727635, 62.60968170658205 
127.1712143591955, 7.4753387170484356, 22.742640927636877, 85.09232303255796, 51.81326107392892, 62.6080556725051 
126.2857311667604, 7.767983000343611, 22.742447554788853, 84.37747501672791, 51.96367947436931, 62.60640429581152 
125.40100551386612, 8.064671693550617, 22.742244139720846, 83.66159056824375, 52.11658943836063, 62.60472795117446 
124.51700101026702, 8.365331093615858, 22.74203045616606, 82.94463154252159, 52.27197096633496, 62.603027022263994 
123.63367920919941, 8.669886906255416, 22.74180628448619, 82.22655860090632, 52.429803698328, 62.60130190178799 
122.7509996173841, 8.978264263671997, 22.7415714120872, 81.50733117202242, 52.59006691271702, 62.59955299152812 
121.86891970560937, 9.290387741045897, 22.741325633828108, 80.78690741184388, 52.75273952475022, 62.59778070237133 
120.98739491982614, 9.606181371783146, 22.74106875242221, 80.06524416242212, 52.917800084855934, 62.595985454336194 
120.10637869269088, 9.925568661505782, 22.740800578830253, 79.34229690920799, 53.085226776718756, 62.59416767659428 
119.22582245549577, 10.248472600771887, 22.740520932645055, 78.61801973690167, 53.25499741510983, 62.59232780748593 
118.34567565042988, 10.574815676514696, 22.74022964246691, 77.89236528376072, 53.42708944345764, 62.59046629453064 
117.46588574311959, 10.90451988219237, 22.73992654626952, 77.16528469429439, 53.60147993114521, 62.58858359443172 
116.5863982354005, 11.237506726642016, 22.739611491755724, 76.43672757026836, 53.778145570518994, 62.586680173075 
115.70715667827915, 11.57369724163317, 22.73928433670271, 75.70664191994152, 53.95706267359402, 62.58475650552155 
114.82810268504645, 11.913011988117987, 22.738944949296187, 74.97497410545307, 54.13820716843931, 62.58281307599418 
113.9491759445112, 12.255371061177001, 22.738593208453086, 74.2416687882743, 54.321554595226736, 62.5808503778574 
113.07031423432663, 12.600694093661055, 22.738229004132283, 73.50666887263635, 54.50708010192589, 62.57886891359128 
112.19145343438905, 12.948900258531424, 22.73785223763306, 72.7699154468419, 54.694758439626476, 62.57686919475801 
111.31252754029326, 13.299908269901977, 22.737462821880793, 72.03134772236363, 54.884563957469304, 62.57485174196221 
110.43346867683515, 13.653636382788395, 22.73706068169947, 71.2909029706305, 55.07647059716552, 62.572817084804164 
109.55420711155895, 14.010002391571069, 22.736645754070725, 70.54851645739711, 55.27045188708313, 62.57076576182577 
108.67467126835132, 14.368923627179809, 22.736217988378993, 69.80412137458832, 55.46648093587905, 62.56869832044959 
107.79478774109322, 14.730316953009442, 22.735777346642475, 69.05764876950683, 55.6645304256531, 62.56661531691054 
106.91448130738489, 15.09409875957731, 22.735323803729532, 68.3090274712874, 55.86457260460009, 62.564517316180215 
106.03367494236828, 15.460184957934361, 22.734857347560244, 67.5581840144771, 56.06657927913441, 62.56240489188354 
105.15228983267684, 15.828490971843406, 22.734377979292816, 66.80504255961615, 56.270521805460405, 62.5602786262083 
