# MEX_intpoint_lon [deg], MEX_intpoint_lat [deg], MEX_intpoint_angle [deg], TGO_intpoint_lon [deg], TGO_intpoint_lat [deg], TGO_intpoint_angle [deg] 
-104.9248362986512, 20.64421644911049, 22.896521609262983, 176.3143823374433, 58.642894183879655, 62.53907936800777 
-105.81546872439061, 20.246982903024488, 22.897177398704905, 175.5428656668814, 58.40812762591296, 62.541433285405546 
-106.7043911264017, 19.850915490666196, 22.897820850405513, 174.77466624991698, 58.17500103247313, 62.54378073228721 
-107.59170689506949, 19.45610679399593, 22.898451783139333, 174.00967111157055, 57.943549150589604, 62.54612099852801 
-108.47751772858774, 19.062648708517802, 22.899070030620887, 173.24777110011706, 57.71380614207672, 62.54845338145951 
-109.36192361506534, 18.670632466893927, 22.89967544152418, 172.48886074456018, 57.4858056012387, 62.55077718606597 
-110.24502281570726, 18.280148661515152, 22.900267879484108, 171.73283811810055, 57.259580571513794, 62.55309172517231 
-111.12691184892405, 17.89128726599743, 22.900847223079865, 170.97960470734293, 57.03516356111224, 62.555396319622886 
-112.00768547523586, 17.504137655574283, 22.901413365800497, 170.22906528699463, 56.8125865576998, 62.557690298451966 
-112.88743668284734, 17.11878862635854, 22.901966215992562, 169.48112779981696, 56.59188104217594, 62.55997299904527 
-113.76625667378109, 16.73532841344735, 22.902505696790122, 168.73570324159937, 56.373078001592894, 62.5622437672927 
-114.64423485046655, 16.353844707847124, 22.9030317460272, 167.99270555093435, 56.15620794125935, 62.56450195773256 
-115.52145880269191, 15.974424672195854, 22.903544316132685, 167.25205150357976, 55.941300896070395, 62.56674693368692 
-116.39801429483586, 15.597154955262061, 22.90404337400815, 166.51366061120316, 55.72838644110265, 62.56897806738835 
-117.27398525330473, 15.22212170520106, 22.90452890088853, 165.7774550243113, 55.51749370151205, 62.571194740098115 
-118.14945375411057, 14.849410581550258, 22.905000892185985, 165.0433594391751, 55.30865136176921, 62.573396342215844 
-119.02450001053268, 14.479106765946844, 22.905459357317174, 164.3113010085689, 55.10188767426586, 62.57558227338058 
-119.8992023608157, 14.111294971552132, 22.905904319514164, 163.58120925615, 54.89723046732386, 62.5777519425635 
-120.77363725586241, 13.746059451168309, 22.90633581561937, 162.8530159943116, 54.69470715263684, 62.5799047681523 
-121.64787924689077, 13.383484004034214, 22.90675389586456, 162.1266552453495, 54.494344732172884, 62.58204017802731 
-122.52200097302865, 13.023651981288461, 22.907158623634587, 161.4020631657904, 54.2961698045652, 62.5841576096297 
-123.3960731488307, 12.66664629008877, 22.90755007521585, 160.67917797373448, 54.100208571016594, 62.58625651002113 
-124.27016455170536, 12.312549396378335, 22.907928339530116, 159.95793987907368, 53.906486840741884, 62.588336335936134 
-125.14434200925001, 11.961443326290608, 22.9082935178538, 159.23829101645106, 53.71503003597173, 62.590396553826274 
-126.01867038649712, 11.613409666185657, 22.908645723523346, 158.52017538083393, 53.525863196539646, 62.592436639896825 
-126.89321257308121, 11.268529561312558, 22.908985081626945, 157.80353876557885, 53.339010984073546, 62.59445608013594 
-127.76802947034379, 10.926883713093222, 22.909311728683054, 157.08832870287088, 53.15449768581148, 62.596454370336446 
-128.64317997839743, 10.588552375025206, 22.909625812306157, 156.37449440642683, 52.972347218060925, 62.59843101611043 
-129.51872098317884, 10.253615347201936, 22.909927490860245, 155.66198671635507, 52.792583129319745, 62.6003855328968 
-130.39470734352406, 9.922151969450868, 22.910216933100404, 154.95075804607077, 52.615228603076275, 62.602317445962086 
-131.27119187830633, 9.594241113091334, 22.910494317803092, 154.24076233116907, 52.4403064603049, 62.60422629039433 
-132.14822535368134, 9.269961171316043, 22.910759833385505, 153.53195498016387, 52.267839161673535, 62.6061116110908 
-133.0258564704911, 8.949390048201572, 22.911013677514596, 152.82429282700346, 52.097848809477554, 62.607972962739076 
-133.90413185188066, 8.632605146355502, 22.911256056706275, 152.1177340852781, 51.93035714931535, 62.609809909792176 
-134.78309603118916, 8.319683353209715, 22.91148718591526, 151.41223830403996, 51.765385571518976, 62.611622026437836 
-135.6627914401791, 8.010701025971336, 22.91170728811616, 150.70776632515708, 51.602955112353676, 62.61340889656198 
-136.5432583976734, 7.705733975245302, 22.91191659387641, 150.00428024212846, 51.443086454998756, 62.615170113706824 
-137.42453509867343, 7.4048574473446545, 22.91211534092148, 149.3017433602904, 51.285799930322426, 62.61690528102348 
-138.30665760403437, 7.108146105307108, 22.912303773693054, 148.6001201583463, 51.131115517462405, 62.61861401121979 
-139.18965983077985, 6.81567400863874, 22.912482142900693, 147.89937625115633, 50.97905284422347, 62.62029592650313 
-140.07357354313785, 6.527514591808673, 22.912650705067627, 147.1994783537264, 50.829631187303264, 62.62195065851877 
-140.95842834438616, 6.243740641520659, 22.912809722071234, 146.50039424633695, 50.682869472356714, 62.623577848283695 
-141.8442516695961, 5.964424272790742, 22.912959460678792, 145.80209274075733, 50.538786273909224, 62.62517714611653 
-142.731068779366, 5.689636903862652, 22.91310019207921, 145.10454364749143, 50.397399815128615, 62.62674821156334 
-143.61890275463833, 5.419449229995563, 22.913232191411204, 144.40771774400466, 50.25872796746518, 62.62829071332008 
-144.50777449269577, 5.153931196161699, 22.913355737288704, 143.71158674388354, 50.122788250168924, 62.62980432915112 
-145.397702704432, 4.893151968694428, 22.913471111324007, 143.01612326688183, 49.9895978296931, 62.63128874580537 
-146.2887039129944, 4.637179905930237, 22.9135785976493, 142.3213008098091, 49.85917351899221, 62.63274365892884 
-147.1807924538967, 4.386082527891139, 22.913678482437245, 141.62709371821921, 49.73153177672301, 62.634168772974796 
-148.07398047669727, 4.139926485057222, 22.913771053421243, 140.9334771588597, 49.60668870635639, 62.63556380111156 
-148.9682779483416, 3.898777526281858, 22.91385659941594, 140.24042709284194, 49.48466005520777, 62.636928465128044 
-149.86369265826264, 3.6627004659053894, 22.91393540983871, 139.54792024949737, 49.36546121339373, 62.63826249533744 
-150.76023022533445, 3.4317591501259197, 22.914007774232658, 138.85593410088308, 49.24910721272175, 62.63956563047912 
-151.65789410677016, 3.2060164226890002, 22.914073981791788, 138.16444683690497, 49.13561272552039, 62.64083761761932 
-152.55668560905417, 2.9855340899607454, 22.914134320889037, 137.4734373410253, 49.0249920634165, 62.6420782120505 
-153.4566039009947, 2.7703728854519394, 22.914189078607652, 136.7828851665249, 48.91725917606611, 62.64328717718984 
-154.35764602897933, 2.5605924338633614, 22.914238540276695, 136.09277051329136, 48.81242764984522, 62.64446428447703 
-155.25980693451217, 2.3562512147251407, 22.91428298901115, 135.4030742051043, 48.71051070650689, 62.645609313271656 
-156.16307947410695, 2.157406525705718, 22.914322705257288, 134.7137776673926, 48.61152120181023, 62.64672205075044 
-157.0674544416043, 1.964114445668181, 22.914357966343964, 134.02486290543737, 48.515471624127514, 62.647802291804474 
-157.97292059297692, 1.7764297975539804, 22.914389046040238, 133.33631248299707, 48.42237409303444, 62.64884983893656 
-158.8794646736793, 1.594406111176305, 22.914416214120184, 132.6481095013315, 48.332240357889496, 62.64986450215952 
-159.7870714485925, 1.4180955860069184, 22.914439735935215, 131.96023757860286, 48.245081796407135, 62.650846098894824 
-160.6957237346079, 1.2475490540421923, 22.914459871994577, 131.2726808296324, 48.16090941323015, 62.65179445387232 
-161.60540243588434, 1.0828159428354354, 22.91447687755465, 130.5854238459936, 48.07973383850593, 62.65270939903122 
-162.51608658180803, 0.9239442387836494, 22.91449100221746, 129.89845167642144, 48.001565326471344, 62.65359077342246 
-163.42775336767357, 0.7709804507578865, 22.914502489539007, 129.21174980752045, 47.92641375405076, 62.65443842311259 
-164.340378198098, 0.6239695741670618, 22.91451157664794, 128.52530414475353, 47.85428861947145, 62.65525220108963 
-165.25393473316828, 0.4829550555452793, 22.914518493875054, 127.8391009936952, 47.78519904090076, 62.656031967170854 
-166.16839493731626, 0.3479787577528798, 22.91452346439407, 127.15312704153263, 47.71915375510888, 62.65677758791282 
-167.08372913090335, 0.21908092588121078, 22.91452670387427, 126.46736933879983, 47.656161116161094, 62.657488936523826 
-167.99990604448826, 0.09630015395034074, 22.914528420145345, 125.78181528133018, 47.596229094143276, 62.65816589277902 
-168.91689287574167, -0.020326647511743002, 22.914528812874952, 125.09645259241273, 47.539365273924034, 62.658808342938 
-169.8346553489613, -0.13076428292127157, 22.91452807325944, 124.41126930513977, 47.48557685395693, 62.65941617966591 
-170.75315777713104, -0.2349793020365793, 22.914526383728003, 123.72625374493191, 47.43487064512596, 62.659989301956905 
-171.67236312645787, -0.33294002921802046, 22.91452391766095, 123.04139451222873, 47.387253069637275, 62.66052761506169 
-172.5922330833108, -0.4246165914684818, 22.914520839122087, 122.35668046533318, 47.342730159960055, 62.66103103041773 
-173.51272812347548, -0.5099809451756345, 22.914517302605898, 121.67210070339793, 47.30130755781921, 62.66149946558353 
-174.43380758363008, -0.5890069014800259, 22.914513452799635, 120.98764454954313, 47.262990513242414, 62.66193284417644 
-175.35542973493696, -0.6616701501963608, 22.91450942436084, 120.30330153409452, 47.227783883663946, 62.66233109581408 
-176.2775518586377, -0.7279482822188373, 22.9145053417103, 119.619061377932, 47.195692133087405, 62.66269415606015 
-177.20013032352898, -0.7878208103453872, 22.91450131884107, 118.93491397593864, 47.16671933130943, 62.66302196637371 
-178.12312066518925, -0.8412691884597419, 22.914497459143536, 118.25084938054039, 47.14086915320632, 62.663314474063185 
-179.04647766681893, -0.8882768290147055, 22.914493855246864, 117.5668577853274, 47.118144878085126, 62.663571632244135 
-179.970155441549, -0.928829118764823, 22.91449058887704, 116.88292950874782, 47.098549389101, 62.66379339980165 
179.10589248393327, -0.9629134327014335, 22.914487730731707, 116.19905497786507, 47.08208517274193, 62.66397974135703 
178.18171308459821, -0.9905191461483559, 22.914485340371918, 115.51522471217042, 47.06875431838221, 62.66413062723887 
177.25735375129014, -1.0116376449818452, 22.91448346613097, 114.83142930744171, 47.058558517905695, 62.66424603345883 
176.33286220411293, -1.0262623339438748, 22.914482145040477, 114.14765941964065, 47.05149906539968, 62.66432594169182 
175.408286405155, -1.0343886430236648, 22.914481402773678, 113.46390574883993, 47.047576856920124, 62.664370339260834 
174.4836744707283, -1.0360140318879636, 22.91448125360625, 112.78015902317252, 47.04679239032874, 62.66437921912654 
173.5590745832959, -1.031137992346742, 22.914481700394415, 112.09640998279464, 47.0491457652024, 62.66435257988134 
172.63453490326694, -1.0197620488467005, 22.91448273457058, 111.41264936385491, 47.054636682815, 62.66429042574833 
171.71010348083524, -1.0018897569910887, 22.914484336156487, 110.72886788246149, 47.06326444619187, 62.66419276658456 
170.78582816804087, -0.9775267000904416, 22.914486473793694, 110.0450562186391, 47.07502796023653, 62.66405961788948 
169.86175653123, -0.9466804837545931, 22.91448910479158, 109.36120500026831, 47.089925731929576, 62.66389100081769 
168.9379357640888, -0.9093607285424851, 22.914492175192663, 108.67730478699872, 47.10795587059921, 62.66368694219628 
168.01441260142332, -0.865579060692062, 22.914495619855128, 107.993346054128, 47.129116088262855, 62.66344747454696 
167.09123323385384, -0.8153491009582243, 22.91449936255257, 107.30931917643868, 47.15340370003877, 62.66317263611265 
166.16844322358924, -0.7586864515925636, 22.91450331609068, 106.62521441198396, 47.18081562462723, 62.66286247088859 
165.2460874214403, -0.6956086815039738, 22.91450738244094, 105.94102188581451, 47.211348384859534, 62.66251702865784 
164.324209885227, -0.6261353096444771, 22.914511452890768, 105.25673157363705, 47.24499810831404, 62.662136365031074 
163.40285379972727, -0.5502877866697817, 22.914515408210356, 104.57233328539606, 47.281760527997484, 62.66172054149087 
162.48206139830896, -0.468089474928768, 22.914519118835667, 103.88781664876927, 47.32163098309003, 62.66126962544008 
161.56187388637875, -0.3795656268408, 22.91452244506745, 103.20317109256773, 47.364604419752304, 62.660783690254064 
160.64233136677404, -0.284743361724013, 22.91452523728606, 102.51838583003035, 47.41067539199241, 62.66026281533747 
159.7234727672155, -0.1836516411417742, 22.914527336181656, 101.83344984200322, 47.45983806259071, 62.659707086184184 
158.80533576992934, -0.07632124283819863, 22.914528572999664, 101.14835185999287, 47.512086204080354, 62.65911659444176 
157.8879567435392, 0.03721526666289653, 22.914528769800988, 100.46308034908324, 47.567413199780724, 62.658491437978796 
156.9713706773183, 0.15692356071825922, 22.91452773973673, 99.77762349070444, 47.62581204488153, 62.65783172095637 
156.05561111788222, 0.2827675824043849, 22.914525287337085, 99.09196916524235, 47.68727534757461, 62.65713755390236 
155.1407101083943, 0.4147095754531556, 22.91452120881387, 98.40610493447637, 47.751795330230436, 62.65640905378933 
154.22669813034437, 0.5527101161991234, 22.9145152923765, 97.72001802383308, 47.8193638306163, 62.65564634411509 
153.31360404795237, 0.6967281464520058, 22.914507318560783, 97.03369530444235, 47.88997230315301, 62.65484955498645 
152.40145505523802, 0.8467210072065905, 22.91449706057031, 96.34712327498241, 47.96361182020638, 62.65401882320537 
151.49027662578857, 1.0026444731010362, 22.914484284629737, 95.66028804329946, 48.040273073410276, 62.653154292357804 
150.58009246524588, 1.1644527875339308, 22.91446875034973, 94.97317530778673, 48.11994637501704, 62.652256112904844 
149.67092446652535, 1.3320986983500236, 22.914450211102963, 94.28577033850758, 48.20262165927183, 62.65132444227582 
148.76279266776908, 1.5055334940043905, 22.91442841441064, 93.59805795804589, 48.28828848380633, 62.650359444963584 
147.85571521302745, 1.684707040115044, 22.914403102339172, 92.9100225220672, 48.376936031047904, 62.64936129262127 
146.94970831565374, 1.8695678163145022, 22.91437401190633, 92.22164789957223, 48.46855310963959, 62.648330164160775 
146.044786224387, 2.0600629533115864, 22.914340875496418, 91.53291745282405, 48.56312815586646, 62.647266245852386 
145.14096119209364, 2.2561382700757444, 22.914303421283915, 90.8438140169298, 48.66064923508327, 62.64616973142553 
144.23824344712534, 2.4577383110575717, 22.914261373665006, 90.15431987905562, 48.76110404313904, 62.645040822170486 
143.3366411672487, 2.6648063833606583, 22.91421445369642, 89.46441675725421, 48.8644799077928, 62.64387972704054 
142.4361604560914, 2.8772845937816958, 22.914162379541064, 88.77408577888176, 48.970763790115555, 62.64268666275468 
141.53680532204524, 3.0951138856376987, 22.914104866919736, 88.08330745858106, 49.07994228587304, 62.64146185390041 
140.63857765956013, 3.3182340753014556, 22.914041629568498, 87.3920616758061, 49.19200162688334, 62.640205533036465 
139.74147723275715, 3.546583888368419, 22.91397237970092, 86.7003276518622, 49.30692768234371, 62.638917940795345 
138.84550166128452, 3.7801009953809532, 22.913896828474723, 86.00808392643454, 49.42470596012059, 62.63759932598504 
137.95064640833598, 4.018722047038386, 22.91381468646216, 85.31530833357695, 49.54532160799621, 62.636249945690224 
137.05690477074666, 4.262382708823764, 22.913725664123522, 84.62197797713121, 49.66875941486591, 62.63487006537228 
136.16426787107855, 4.511017694981619, 22.913629472283038, 83.9280692055453, 49.795003811878914, 62.633459958968025 
135.27272465160516, 4.764560801783174, 22.91352582260679, 83.23355758605864, 49.92403887351608, 62.63201990898687 
134.38226187010193, 5.022944940019109, 22.913414428081786, 82.53841787821986, 50.055848318597306, 62.63055020660637 
133.49286409734805, 5.286102166662386, 22.91329500349564, 81.84262400670119, 50.19041551121132, 62.629051151765495 
132.60451371624276, 5.553963715647253, 22.91316726591623, 81.14614903337215, 50.32772346156027, 62.62752305325574 
131.71719092244044, 5.826460027712958, 22.913030935170713, 80.44896512859356, 50.46775482671116, 62.62596622880973 
130.8308737264052, 6.103520779264439, 22.91288573432329, 79.7510435416899, 50.61049191124617, 62.62438100518689 
129.9455379567903, 6.385074910204661, 22.91273139015099, 79.05235457055812, 50.75591666780339, 62.62276771825638 
129.06115726504316, 6.6710506506968485, 22.91256763361694, 78.3528675303666, 50.90401069749923, 62.621126713076286 
128.1777031311418, 6.961375546817386, 22.91239420034051, 77.65255072129776, 51.054755250223614, 62.61945834396982 
127.2951448703681, 7.255976485063443, 22.912210831063668, 76.95137139528455, 51.20813122479864, 62.61776297459731 
126.41344964102423, 7.554779715682181, 22.91201727211288, 76.24929572168882, 51.36411916899098, 62.61604097802444 
125.53258245300323, 7.8577108747910005, 22.91181327585609, 75.54628875186738, 51.522699279368084, 62.614292736786204 
124.65250617712422, 8.164695005261546, 22.91159860115409, 74.84231438256849, 51.6838514009879, 62.612518642946206 
123.77318155514784, 8.475656576342256, 22.91137301380563, 74.1373353180999, 51.84755502691107, 62.61071909815164 
122.8945672103893, 8.790519501997526, 22.911136286985798, 73.43131303120461, 52.01378929752478, 62.60889451368281 
122.01661965885026, 9.109207157943334, 22.910888201677043, 72.7242077225805, 52.18253299966638, 62.607045310497995 
121.13929332079454, 9.431642397362431, 22.910628547092216, 72.01597827897362, 52.35376456553472, 62.60517191927259 
120.26254053269642, 9.75774756528375, 22.910357121089206, 71.30658222977478, 52.5274620713767, 62.6032747804328 
119.38631155949447, 10.087444511613546, 22.91007373057643, 70.59597570204282, 52.70360323593599, 62.601354344183505 
118.51055460708854, 10.42065460280767, 22.90977819190881, 69.88411337387687, 52.88216541864989, 62.59941107053008 
117.63521583502181, 10.7572987321763, 22.909470331273692, 69.17094842605428, 53.06312561758063, 62.59744542929407 
116.76023936929522, 11.097297328814951, 22.909149985065994, 68.45643249184772, 53.24646046706572, 62.59545790012245 
115.88556731526631, 11.440570365156743, 22.908817000252434, 67.74051560493157, 53.43214623507213, 62.593448972490236 
115.0111397705896, 11.7870373631434, 22.90847123472396, 67.02314614528164, 53.62015882023796, 62.591419145696285 
114.13689483816206, 12.13661739901363, 22.908112557636265, 66.3042707829698, 53.810473748584485, 62.58936892885244 
113.26276863904168, 12.489229106709606, 22.907740849737664, 65.5838344197487, 54.003066169880995, 62.58729884086517 
112.38869532531412, 12.844790679903324, 22.90735600368402, 64.86178012831847, 54.19791085364356, 62.58520941041012 
111.51460709288759, 13.203219872646704, 22.90695792434029, 64.13804908916036, 54.39498218474838, 62.5831011758994 
110.64043419420318, 13.564433998650165, 22.9065465290682, 63.412580524818736, 54.594254158639, 62.58097468544084 
109.76610495085383, 13.928349929196091, 22.906121747999762, 62.68531163150631, 54.79570037610603, 62.578830496790026 
108.89154576611135, 14.294884089694918, 22.90568352429615, 61.956177507901494, 54.99929403761671, 62.57666917729423 
108.01668113736913, 14.66395245489255, 22.90523181439171, 61.22511108100198, 55.20500793717038, 62.5744913038285 
107.14143366851349, 15.035470542739601, 22.904766588222557, 60.49204302889051, 55.412814455655166, 62.57229746272331 
106.26572408224526, 15.409353406933432, 22.904287829439674, 59.756901700264606, 55.62268555367925, 62.57008824968473 
105.38947123237972, 15.785515628145989, 22.903795535606044, 59.01961303057297, 55.83459276384923, 62.5678642697055 
