# MEX_intpoint_lon [deg], MEX_intpoint_lat [deg], MEX_intpoint_angle [deg], TGO_intpoint_lon [deg], TGO_intpoint_lat [deg], TGO_intpoint_angle [deg] 
-103.9297637238026, 20.417837930291174, 22.29388293535677, -148.10757981129206, 59.03956194723497, 62.529623261611015 
-104.83900256776464, 20.051606520428134, 22.294465098390457, -148.90089396842427, 58.8161144763692, 62.531846222367804 
-105.74655136284467, 19.68636603495617, 22.29503703605885, -149.69069067706013, 58.59417887160604, 62.534063416577695 
-106.6525006054657, 19.32220584965203, 22.295598586365532, -150.47708358110532, 58.373790495289846, 62.53627417293489 
-107.55693949917108, 18.959214681229504, 22.296149599692523, -151.26018268686872, 58.15498408826138, 62.5384778267569 
-108.45995592566207, 18.59748060352077, 22.29668993881991, -152.0400944889494, 57.93779378817848, 62.5406737201715 
-109.36163641729274, 18.23709106296328, 22.29721947893038, -152.8169220914698, 57.722253146817906, 62.542861202296095 
-110.26206613089727, 17.87813289335469, 22.297738107599017, -153.59076532480648, 57.50839514640743, 62.545039629409395 
-111.16132882283426, 17.520692329840088, 22.298245724768066, -154.36172085797202, 57.2962522150342, 62.547208365115395 
-112.0595068251391, 17.164855022098862, 22.29874224270706, -155.12988230679716, 57.08585624117371, 62.54936678049938 
-112.9566810226847, 16.81070604669956, 22.299227585958203, -155.8953403380638, 56.87723858738139, 62.55151425427645 
-113.85293083125828, 16.458329918594075, 22.29970169126715, -156.658182769735, 56.67043010318673, 62.55365017293201 
-114.74833417646862, 16.107810601723603, 22.300164507499375, -157.41849466742582, 56.465461137228075, 62.55577393085465 
-115.64296747340768, 15.75923151871121, 22.300615995542287, -158.1763584372573, 56.262361548664224, 62.55788493046148 
-116.53690560699499, 15.412675559617169, 22.3010561281931, -158.93185391523, 56.06116071789738, 62.55998258231558 
-117.43022191294294, 15.068225089735163, 22.301484890032864, -159.68505845325316, 55.861887556640106, 62.562066305235774 
-118.32298815928581, 14.725961956409076, 22.301902277286576, -160.43604700195948, 55.66457051735788, 62.56413552639917 
-119.21527452842446, 14.385967494851364, 22.302308297669967, -161.18489219043312, 55.46923760211653, 62.566189681435894 
-120.10714959964197, 14.048322532946136, 22.302702970222754, -161.93166440297446, 55.27591637086328, 62.56822821451643 
-120.99868033205604, 13.713107395020925, 22.303086325128934, -162.67643185302154, 55.084633949168314, 62.570250578431754 
-121.88993204797596, 13.38040190457336, 22.303458403524246, -163.4192606543435, 54.895417035452425, 62.57225623466605 
-122.7809684166416, 13.050285385939652, 22.30381925729107, -164.1602148896191, 54.70829190772556, 62.5742446534622 
-123.67185143832528, 12.722836664894203, 22.30416894884112, -164.8993566765077, 54.52328442985956, 62.57621531388054 
-124.56264142878472, 12.398134068170338, 22.304507550886136, -165.63674623131772, 54.34042005741737, 62.57816770385011 
-125.45339700406015, 12.076255421894235, 22.304835146197018, -166.3724419303737, 54.15972384306014, 62.58010132021357 
-126.34417506561385, 11.757278048925523, 22.305151827351665, -167.10650036917878, 53.981220441552594, 62.58201566876498 
-127.23503078581686, 11.441278765099353, 22.305457696471787, -167.83897641946646, 53.804934114386114, 62.583910264281236 
-128.126017593791, 11.128333874366724, 22.305752864949305, -168.56992328423206, 53.63088873403805, 62.585784630547046 
-129.01718716162083, 10.81851916283121, 22.306037453162375, -169.29939255083028, 53.459107787885216, 62.58763830037322 
-129.90858939095378, 10.511909891681974, 22.306311590181704, -170.02743424222314, 53.28961438178854, 62.58947081560939 
-130.80027240001266, 10.208580789024671, 22.306575413467403, -170.75409686645773, 53.12243124336503, 62.59128172715014 
-131.69228251104684, 9.908606040613604, 22.306829068556883, -171.47942746445136, 52.95758072496296, 62.593070594935604 
-132.58466423825573, 9.612059279490236, 22.307072708744055, -172.2034716561588, 52.79508480635498, 62.5948369879463 
-133.47746027621923, 9.3190135745351, 22.307306494750474, -172.92627368519192, 52.63496509716359, 62.596580484192316 
-134.37071148887583, 9.029541417941987, 22.30753059438875, -173.6478764619607, 52.47724283903289, 62.59830067069735 
-135.26445689909127, 8.74371471162519, 22.307745182218607, -174.36832160540126, 52.32193890755959, 62.59999714347751 
-136.15873367886525, 8.461604752572642, 22.307950439196276, -175.08764948335414, 52.16907381399616, 62.601669507514885 
-137.05357714022543, 8.18328221715996, 22.308146552317407, -175.80589925165256, 52.01866770673822, 62.603317376726814 
-137.94902072686247, 7.908817144442174, 22.308333714254204, -176.52310889197952, 51.87074037260811, 62.60494037393015 
-138.84509600656156, 7.63827891844228, 22.308512122987153, -177.2393152485494, 51.72531123794554, 62.60653813080113 
-139.74183266448824, 7.371736249458103, 22.308681981431864, -177.95455406366654, 51.582399369516644, 62.60811028783139 
-140.63925849738948, 7.109257154410671, 22.308843497061464, -178.66886001221312, 51.44202347525167, 62.60965649427962 
-141.53739940877193, 6.850908936260141, 22.308996881525193, -179.38226673511483, 51.30420190482133, 62.61117640811952 
-142.43627940512104, 6.596758162517219, 22.3091423502635, 179.90519312816863, 51.16895265006182, 62.61266969598432 
-143.33592059322652, 6.346870642880436, 22.309280122120324, 179.19348790808277, 51.0362933452575, 62.614136033107634 
-144.23634317868044, 6.10131140603204, 22.309410418952986, 178.48258687430447, 50.906241267290724, 62.61557510326145 
-145.13756546561427, 5.860144675627566, 22.309533465240218, 177.77246020591306, 50.778813335667216, 62.61698659869105 
-146.03960385774258, 5.6234338455164785, 22.309649487688855, 177.06307896236729, 50.65402611242563, 62.61837022004711 
-146.94247286078087, 5.391241454233627, 22.30975871483974, 176.35441505524935, 50.53189580193932, 62.61972567631542 
-147.84618508630342, 5.163629158803734, 22.30986137667326, 175.6464412207405, 50.412438250618294, 62.62105268474425 
-148.75075125710893, 4.940657707903147, 22.309957704215226, 174.93913099279214, 50.295668946518944, 62.622350970769524 
-149.6561802141574, 4.722386914425747, 22.310047929143376, 174.23245867696014, 50.1816030188689, 62.623620267938485 
-150.56247892514352, 4.508875627501902, 22.310132283395205, 173.52639932486895, 50.07025523751408, 62.62486031783123 
-151.46965249476747, 4.300181704021563, 22.310210998777595, 172.8209287092767, 49.96164001229495, 62.6260708699812 
-152.3777041767637, 4.096361979714888, 22.310284306578662, 172.1160232997094, 49.8557713923584, 62.62725168179423 
-153.286635387744, 3.897472239845661, 22.310352437182555, 171.41166023863863, 49.752663065412065, 62.62840251846683 
-154.19644572291037, 3.7035671895748923, 22.310415619687387, 170.70781731817343, 49.65232835692694, 62.6295231529034 
-155.10713297368727, 3.5147004240536734, 22.31047408152716, 170.0044729572426, 49.554780229294316, 62.63061336563311 
-156.01869314732213, 3.330924398306375, 22.31052804809795, 169.3016061792405, 49.4600312809433, 62.631672944726425 
-156.931120488496, 3.1522903969667024, 22.31057774238884, 168.59919659011493, 49.3680937454239, 62.63270168571123 
-157.84440750298413, 2.9788485039307253, 22.310623384618285, 167.89722435687204, 49.278979490461595, 62.633699391489344 
-158.75854498340053, 2.8106475719923854, 22.310665191876208, 167.19567018647857, 49.19270001698846, 62.634665872253024 
-159.67352203705514, 2.647735192528077, 22.310703377772295, 166.4945153051388, 49.10926645815572, 62.63560094540213 
-160.5893261159481, 2.4901576652980872, 22.31073815209112, 165.79374143792748, 49.02868957833302, 62.636504435461895 
-161.50594304891854, 2.3379599684334185, 22.31076972045438, 165.0933307887589, 48.950979772098684, 62.6373761740014 
-162.42335707596033, 2.1911857286772585, 22.31079828399077, 164.39326602067374, 48.87614706322584, 62.63821599955335 
-163.3415508847105, 2.0498771919507117, 22.310824039013976, 163.69353023642668, 48.8042011036685, 62.639023757534844 
-164.2605056491104, 1.9140751943128618, 22.310847176709057, 162.99410695935666, 48.735151172551916, 62.639799300169685 
-165.18020107023136, 1.7838191333850772, 22.310867882827818, 162.29498011452492, 48.66900617517136, 62.64054248641231 
-166.10061541925234, 1.6591469403094254, 22.31088633739352, 161.59613401010438, 48.60577464200279, 62.64125318187328 
-167.02172558256723, 1.5400950523105397, 22.310902714415125, 160.8975533190056, 48.54546472772958, 62.64193125874695 
-167.94350710899536, 1.4266983859297875, 22.31091718161184, 160.19922306072516, 48.48808421028845, 62.642576595741 
-168.86593425905886, 1.3189903109994712, 22.310929900147954, 159.50112858340216, 48.43364048993822, 62.64318907800838 
-169.78898005628588, 1.217002625423963, 22.31094102437855, 158.80325554607023, 48.382140588354446, 62.6437685970815 
-170.7126163404895, 1.120765530832957, 22.31095070160629, 158.10558990109175, 48.33359114775307, 62.64431505080907 
-171.6368138229665, 1.0303076091707648, 22.3109590718497, 157.40811787676182, 48.28799843004589, 62.64482834329547 
-172.5615421435525, 0.9456558002833721, 22.310966267623233, 156.71082596007088, 48.245368316030714, 62.64530838484319 
-173.48676992946292, 0.8668353805631893, 22.31097241372936, 156.01370087961348, 48.20570630461861, 62.64575509189778 
-174.41246485584307, 0.7938699427088548, 22.31097762706298, 155.3167295886329, 48.16901751210075, 62.6461683869962 
-175.33859370794363, 0.7267813766549962, 22.310982016428465, 154.61989924819053, 48.13530667145714, 62.64654819871819 
-176.26512244483192, 0.6655898517240921, 22.310985682369537, 153.9231972104495, 48.10457813170918, 62.646894461640905 
-177.1920162645428, 0.61031380004947, 22.31098871701215, 153.22661100206275, 48.07683585731828, 62.64720711629684 
-178.11923967056774, 0.5609699013153905, 22.310991203920732, 152.53012830765553, 48.05208342763186, 62.64748610913534 
-179.0467565395755, 0.5175730688566434, 22.310993217967813, 151.83373695339293, 48.03032403637888, 62.64773139248742 
-179.97453019025227, 0.480136437156632, 22.31099482521731, 151.1374248906226, 48.01156049121594, 62.64794292453445 
179.09747654685546, 0.4486713507790264, 22.310996082821674, 150.44118017958445, 47.99579521332555, 62.64812066928028 
178.16930125861484, 0.4231873547643409, 22.31099703893283, 149.74499097317718, 47.98303023706743, 62.64826459652717 
177.24098187782266, 0.403692186518533, 22.31099773262727, 149.04884550077418, 47.973267209684174, 62.64837468185546 
176.3125566110899, 0.39019176921679316, 22.31099819384527, 148.35273205207886, 47.96650739106176, 62.64845090660711 
175.38406386622515, 0.3826902067412733, 22.310998443344285, 147.65663896101185, 47.962751653545915, 62.648493257873135 
174.45554217924868, 0.3811897801671866, 22.310998492666737, 146.96055458962104, 47.96200048181455, 62.648501728484646 
173.52703014117068, 0.38569094580743196, 22.31099834412199, 146.26446731200622, 47.96425397280679, 62.64847631700811 
172.59856632466864, 0.39619233482120264, 22.31099799078281, 145.56836549825002, 47.96951183570878, 62.64841702774437 
171.67018921079801, 0.4126907543877855, 22.310997416496125, 144.87223749834686, 47.97777339199631, 62.64832387073153 
170.74193711587193, 0.4351811904422268, 22.31099659590814, 144.1760716261212, 47.98903757553405, 62.648196861751735 
169.81384811864308, 0.46365681196489517, 22.310995494503743, 143.47985614312734, 48.00330293273125, 62.648036022342055 
168.88595998792144, 0.49810897681284483, 22.31099406866025, 142.78357924252174, 48.020567622753376, 62.647841379808824 
167.95831011075836, 0.5385272390762201, 22.31099226571523, 142.0872290328995, 48.0408294177891, 62.64761296724626 
167.03093542132598, 0.5848993579388017, 22.31099002404851, 141.39079352208702, 48.06408570337194, 62.647350823558504 
166.10387233061726, 0.6372113080175884, 22.310987273178117, 140.69426060088085, 48.0903334787556, 62.64705499348567 
165.17715665708985, 0.6954472911520194, 22.31098393387014, 139.99761802672532, 48.119569357341966, 62.646725527633386 
164.25082355837122, 0.7595897496098474, 22.310979918262245, 139.30085340731873, 48.15178956716042, 62.64636248250616 
163.32490746414027, 0.829619380672305, 22.310975130000774, 138.60395418413944, 48.18698995139731, 62.64596592054407 
162.39944201029414, 0.9055151525581635, 22.31096946439125, 137.90690761588252, 48.225165968973826, 62.645535910163304 
161.47445997450492, 0.9872543216422085, 22.310962808561943, 137.20970076179665, 48.266312695170676, 62.64507252579954 
160.5499932132647, 1.0748124509207593, 22.3109550416405, 136.51232046491222, 48.31042482229764, 62.64457584795529 
159.62607260051178, 1.1681634296735677, 22.31094603494326, 135.8147533351494, 48.35749666040614, 62.64404596324988 
158.70272796792514, 1.2672794942686136, 22.310935652176973, 135.11698573229614, 48.40752213804237, 62.6434829644728 
157.7799880469673, 1.3721312500534826, 22.310923749652783, 134.41900374884557, 48.460494803039005, 62.64288695064015 
156.85788041274893, 1.4826876942748315, 22.31091017651216, 133.72079319268045, 48.51640782334267, 62.64225802705358 
155.9364314297825, 1.5989162399649517, 22.310894774964304, 133.02233956959404, 48.575253987874746, 62.641596305362405 
155.0156661996846, 1.7207827407326723, 22.310877380535004, 132.32362806563458, 48.63702570742261, 62.640901903627906 
154.09560851088008, 1.8482515163939333, 22.31085782232636, 131.6246435292612, 48.70171501555831, 62.6401749463904 
153.17628079035308, 1.9812853793760352, 22.310835923287183, 130.9253704532982, 48.769313569581605, 62.63941556473853 
152.25770405748432, 2.1198456618281574, 22.31081150049363, 130.22579295667384, 48.839812651484166, 62.638623896380594 
151.33989788000562, 2.263892243369862, 22.31078436543975, 129.52589476592996, 48.913203168931226, 62.63780008571806 
150.4228803320959, 2.4133835794084373, 22.310754324337527, 128.82565919648738, 48.98947565625736, 62.63694428392086 
149.5066679546367, 2.5682767299554516, 22.31072117842603, 128.12506913365235, 49.06862027547243, 62.63605664900428 
148.5912757176367, 2.728527388872635, 22.31068472428929, 127.42410701334722, 49.150626817273896, 62.63513734590745 
147.67671698483008, 2.894089913476981, 22.310644754182437, 126.7227548025501, 49.235484702061164, 62.63418654657312 
146.7630034804454, 3.064917354435282, 22.31060105636564, 126.02099397942503, 49.32318298094803, 62.63320443002848 
145.85014525813585, 3.240961485878665, 22.310553415445554, 125.31880551312507, 49.413710336768496, 62.63219118246721 
144.9381506720564, 3.4221728356680474, 22.31050161272365, 124.61616984325008, 49.5070550850714, 62.631146997331825 
144.02702635006582, 3.6085007157425295, 22.31044542655103, 123.91306685893849, 49.60320517509919, 62.63007207539696 
143.11677716902867, 3.7998932524833715, 22.310384632689313, 123.20947587757392, 49.70214819074584, 62.62896662485308 
142.20740623218353, 3.9962974170275496, 22.310319004677027, 122.50537562308396, 49.803871351488496, 62.627830861389896 
141.2989148485433, 4.197659055466075, 22.310248314201086, 121.80074420381024, 49.908361513288064, 62.626665008280185 
140.39130251428386, 4.403922918863681, 22.310172331472867, 121.09555908992532, 50.01560516945258, 62.625469296463095 
139.48456689607826, 4.615032693038078, 22.310090825608263, 120.38979709037302, 50.125588451458164, 62.62424396462717 
138.57870381632483, 4.830931028038772, 22.31000356501142, 119.68343432930654, 50.23829712972139, 62.622989259292645 
137.67370724021836, 5.051559567267074, 22.309910317761485, 118.97644622199775, 50.35371661431691, 62.62170543489266 
136.76956926460795, 5.276858976180995, 22.309810852001924, 118.26880745019058, 50.47183195563425, 62.620392753853714 
135.86628010858215, 5.50676897053081, 22.309704936331837, 117.56049193686923, 50.592627844966984, 62.61905148667453 
134.96382810572186, 5.74122834407284, 22.309592340198904, 116.85147282041142, 50.71608861502766, 62.61768191200355 
134.0621996979571, 5.980174995711634, 22.309472834293196, 116.14172242809512, 50.842198240381364, 62.616284316714534 
133.16137943096356, 6.223545956022496, 22.309346190941564, 115.43121224892631, 50.970940337790914, 62.61485899598026 
132.26134995103288, 6.471277413108989, 22.309212184502027, 114.71991290575303, 51.102298166465914, 62.61340625334419 
131.3620920033506, 6.7233047377519375, 22.309070591757454, 114.00779412663078, 51.236254628208016, 62.61192640078935 
130.46358443161395, 6.979562507809213, 22.30892119230833, 113.29482471540113, 51.37279226744464, 62.61041975880496 
129.56580417892272, 7.2399845318274565, 22.30876376896383, 112.58097252144574, 51.511893271142306, 62.60888665645 
128.66872628987588, 7.504503871829809, 22.3085981081308, 111.86620440857403, 51.653539468591596, 62.607327431413914 
127.77232391380744, 7.7730528652454485, 22.30842400020016, 111.15048622300327, 51.797712331054385, 62.60574243007368 
126.87656830909586, 8.045563145949577, 22.308241239930094, 110.43378276038612, 51.94439297126437, 62.60413200754798 
125.98142884848224, 8.321965664384665, 22.308049626825614, 109.71605773183997, 52.09356214277131, 62.602496527747014 
125.08687302533468, 8.602190706735882, 22.30784896551402, 108.99727372892995, 52.2452002391189, 62.600836363419006 
124.19286646079675, 8.88616791313622, 22.30763906611569, 108.27739218755521, 52.39928729284632, 62.599151896192105 
123.29937291176167, 9.17382629487881, 22.307419744609664, 107.55637335068674, 52.555802974302395, 62.597443516612465 
122.40635427961422, 9.465094250616383, 22.307190823193725, 106.83417622990143, 52.71472659026168, 62.595711624177326 
121.51377061968714, 9.75989958152959, 22.30695213063829, 106.11075856565643, 52.87603708233061, 62.593956627363895 
120.6215801513793, 10.058169505448603, 22.30670350263373, 105.38607678624356, 53.03971302513201, 62.592178943652925 
119.72973926888815, 10.359830669913794, 22.30644478213072, 104.66008596536307, 53.205732624255305, 62.59037899954742 
118.83820255251057, 10.664809164164003, 22.30617581967296, 103.93273977825139, 53.37407371395961, 62.588557230586076 
117.9469227804705, 10.973030530042296, 22.305896473722147, 103.20399045629658, 53.544713754616225, 62.58671408135122 
117.05585094123617, 11.284419771811324, 22.305606610974408, 102.47378874007134, 53.71762982987624, 62.58485000547117 
116.16493624629173, 11.598901364872438, 22.305306106667977, 101.74208383071074, 53.89279864354897, 62.5829654656169 
115.27412614333427, 11.916399263383916, 22.30499484488173, 101.00882333955947, 54.07019651617556, 62.58106093349254 
114.38336632987034, 12.23683690677629, 22.304672718823984, 100.27395323600913, 54.249799381282045, 62.57913688982001 
113.49260076719108, 12.560137225163619, 22.304339631111368, 99.53741779344459, 54.4315827812951, 62.577193824317405 
112.60177169470916, 12.886222643652028, 22.303995494037284, 98.7991595332132, 54.6155218631031, 62.575232235670605 
111.71081964464669, 13.215015085547781, 22.303640229829576, 98.05911916652934, 54.8015913732443, 62.57325263149895 
110.81968345706684, 13.546435974469386, 22.303273770897114, 97.31723553422145, 54.989765652703106, 62.5712555283138 
109.92830029524839, 13.880406235369247, 22.302896060064953, 96.57344554422684, 55.18001863129448, 62.569241451470404 
109.03660566140721, 14.216846294472443, 22.30250705079761, 95.82768410673462, 55.372323821615716, 62.56721093511293 
108.14453341277378, 14.555676078141387, 22.30210670741037, 95.07988406687433, 55.566654312543655, 62.56516452211252 
107.25201577804269, 14.896815010676699, 22.301695005268076, 94.3299761348438, 55.762982762254566, 62.563102763997954 
106.35898337421449, 15.240182011066395, 22.301271930971396, 93.5778888133658, 55.96128139074271, 62.56102622087937 
105.46536522385756, 15.585695488696516, 22.300837482529918, 92.82354832235993, 56.16152197181234, 62.5589354613646 
104.57108877282297, 15.933273338038411, 22.30039166952231, 92.06687852071114, 56.363675824516854, 62.556831062467964 
