# MEX_intpoint_lon [deg], MEX_intpoint_lat [deg], MEX_intpoint_angle [deg], TGO_intpoint_lon [deg], TGO_intpoint_lat [deg], TGO_intpoint_angle [deg] 
-104.16085705761934, 20.472114950774085, 22.429982405887127, -155.87668166943362, 59.14616954340966, 62.52847276852844 
-105.06599812299395, 20.09873273423265, 22.430581142816116, -156.67591731463304, 58.92591289222754, 62.530659414409804 
-105.9694409751053, 19.726380551553785, 22.43116919038605, -157.47158774991576, 58.70713229360339, 62.53284048070015 
-106.8712790881378, 19.3551486080822, 22.43174638225487, -158.26380647952016, 58.48986325112964, 62.53501530687603 
-107.77160455491497, 18.985126441611044, 22.432312565021654, -159.0526834355646, 58.274140638814956, 62.537183238816134 
-108.67050806007637, 18.616402940240285, 22.43286759824623, -159.83832509876078, 58.05999871945813, 62.53934362898583 
-109.56807885465021, 18.249066359464965, 22.433411354453145, -160.62083461485864, 57.84747116202209, 62.54149583661399 
-110.46440473189071, 17.883204338456824, 22.433943719119974, -161.40031190694725, 57.63659105805442, 62.54363922786279 
-111.3595720042598, 17.518903915504865, 22.434464590650173, -162.17685378373824, 57.427390937199064, 62.54577317598954 
-112.25366548143967, 17.156251542582705, 22.434973880330485, -162.95055404395862, 57.21990278184176, 62.54789706150135 
-113.14676844927304, 16.795333099012396, 22.43547151227291, -163.72150357697993, 57.014158040929374, 62.55001027230216 
-114.03896264953491, 16.436233904196747, 22.43595742334159, -164.48979045981014, 56.81018764300207, 62.5521122038322 
-114.93032826044838, 16.079038729393577, 22.436431563064453, -165.25550005057235, 56.60802200847482, 62.554202259200146 
-115.82094387786542, 15.72383180850736, 22.436893893529938, -166.01871507859522, 56.40769106120365, 62.55627984930775 
-116.7108864970401, 15.370696847875418, 22.437344389269057, -166.7795157312346, 56.20922423936977, 62.558344392966966 
-117.60023149493034, 15.01971703502718, 22.437783037122724, -167.5379797375472, 56.012650505713616, 62.560395317009814 
-118.48905261297124, 14.670975046397153, 22.438209836094742, -168.29418244893202, 55.81799835714939, 62.562432056390904 
-119.37742194026978, 14.324553053972933, 22.43862479719068, -169.04819691685378, 55.62529583378869, 62.564454054282685 
-120.26540989717851, 13.980532730862068, 22.439027943242795, -169.8000939677594, 55.43457052740138, 62.566460762163416 
-121.15308521921182, 13.638995255762227, 22.439419308721238, -170.54994227529662, 55.24584958933972, 62.56845163989814 
-122.04051494127502, 13.300021316321141, 22.43979893953197, -171.2978084299383, 55.05915973795128, 62.570426155812584 
-122.9277643821838, 12.963691111373882, 22.44016689280145, -172.04375700611715, 54.874527265504426, 62.572383786760014 
-123.81489712945644, 12.63008435204688, 22.44052323664865, -172.7878506269671, 54.69197804464947, 62.574324018181336 
-124.7019750243684, 12.299280261719057, 22.44086804994446, -173.53015002677031, 54.51153753443748, 62.57624634415848 
-125.58905814726403, 11.971357574832481, 22.441201422059084, -174.27071411120053, 54.33323078591767, 62.57815026746085 
-126.4762048031264, 11.646394534546072, 22.441523452597497, -175.0096000154538, 54.157082447333416, 62.580035299585795 
-127.36347150741148, 11.32446888922748, 22.44183425112355, -175.74686316035354, 53.98311676893604, 62.58190096079207 
-128.25091297215812, 11.005657887780162, 22.442133936873034, -176.48255730651297, 53.81135760743488, 62.58374678012742 
-129.13858209239115, 10.690038273803706, 22.442422638456033, -177.21673460663715, 53.64182843010087, 62.58557229544998 
-130.02652993283868, 10.377686278587777, 22.442700493549022, -177.94944565604112, 53.47455231854095, 62.58737705344347 
-130.91480571499136, 10.068677612941189, 22.44296764857711, -178.68073954146118, 53.30955197215887, 62.58916060962685 
-131.80345680453385, 9.763087457859823, 22.443224258386934, -179.41066388822998, 53.14684971131827, 62.59092252835808 
-132.69252869918517, 9.46099045403855, 22.44347048591048, 179.86073509411318, 52.98646748022256, 62.592662382832316 
-133.58206501698734, 9.162460690234504, 22.443706501820404, 179.13341256771074, 52.82842684952605, 62.59437975507491 
-134.47210748508692, 8.867571690490777, 22.44393248417736, 178.40732502370886, 52.672749018689785, 62.596074235929144 
-135.36269592905697, 8.57639640023169, 22.444148618069622, 177.68243024095094, 52.51945481809524, 62.59774542503887 
-136.25386826281127, 8.2890071712427, 22.444355095245665, 176.9586872459826, 52.368564710928574, 62.59939293082626 
-137.1456604791657, 8.005475745550434, 22.444552113740066, 176.23605627431104, 52.22009879484739, 62.6010163704652 
-138.0381066411047, 7.725873238220155, 22.444739877493358, 175.51449873286361, 52.07407680344184, 62.602615369849794 
-138.93123887381375, 7.450270119090205, 22.444918595966158, 174.7939771635917, 51.930518107501044, 62.60418956355878 
-139.825087357542, 7.178736193465681, 22.44508848374823, 174.07445520817032, 51.78944171609586, 62.60573859481589 
-140.71968032136013, 6.91134058179518, 22.445249760162973, 173.35589757374305, 51.65086627748824, 62.60726211544631 
-141.61504403788223, 6.648151698357568, 22.445402648867788, 172.63826999966622, 51.51481007987727, 62.608759785829186 
-142.51120281902067, 6.3892372289876, 22.44554737745094, 171.9215392252072, 51.38129105199157, 62.61023127484694 
-143.40817901284612, 6.134664107871829, 22.445684177025395, 171.20567295815272, 51.250326763537224, 62.611676259831086 
-144.305993001624, 5.884498493448746, 22.445813281820154, 170.49063984428653, 51.12193442551051, 62.613094426505114 
-145.20466320110108, 5.6388057434496055, 22.44593492876971, 169.77640943769612, 50.99613089038387, 62.614485468924265 
-146.10420606111583, 5.397650389118664, 22.446049357102066, 169.06295217187014, 50.87293265217355, 62.61584908941277 
-147.00463606760547, 5.16109610865428, 22.44615680792588, 168.3502393315498, 50.752355846397165, 62.61718499849868 
-147.90596574608347, 4.929205699914805, 22.446257523817426, 167.63824302529957, 50.634416249928776, 62.61849291484609 
-148.8082056666604, 4.7020410524354235, 22.446351748407626, 166.92693615876232, 50.519129280759195, 62.61977256518586 
-149.71136445067887, 4.4796631188049245, 22.446439725969977, 166.2162924085676, 50.40650999766883, 62.62102368424392 
-150.6154487790333, 4.262131885453397, 22.446521701009797, 165.50628619686137, 50.29657309982006, 62.622246014668306 
-151.52046340224217, 4.049506342904585, 22.446597917855332, 164.79689266642737, 50.18933292627598, 62.623439306954666 
-152.42641115233968, 3.841844455548551, 22.446668620251216, 164.08808765637184, 50.08480345545215, 62.62460331937052 
-153.3332929566486, 3.6392031309928763, 22.44673405095499, 163.37984767834374, 49.98299830450778, 62.62573781787848 
-154.24110785349592, 3.4416381890524885, 22.446794451336967, 162.67214989326487, 49.88393072868236, 62.6268425760587 
-155.1498530099271, 3.2492043304403904, 22.44685006098425, 161.96497208854387, 49.787613620583876, 62.627917375030925 
-156.05952374147236, 3.0619551052233835, 22.44690111730916, 161.25829265575044, 49.69405950943422, 62.628962003375676 
-156.97011353401282, 2.879942881108886, 22.446947855162747, 160.5520905687265, 49.6032805602776, 62.62997625705568 
-157.88161406779113, 2.7032188116302174, 22.446990506453908, 159.84634536211203, 49.515288573156866, 62.63095993933715 
-158.79401524360497, 2.5318328042996567, 22.447029299774474, 159.14103711026425, 49.430094982263626, 62.63191286071121 
-159.707305211217, 2.365833488799571, 22.44706446003097, 158.4361464065498, 49.34771085506644, 62.63283483881568 
-160.62147040000897, 2.205268185283296, 22.44709620808328, 157.73165434298974, 49.26814689142244, 62.63372569835768 
-161.53649555190134, 2.050182872858265, 22.447124760390974, 157.02754249023982, 49.19141342267672, 62.63458527103668 
-162.45236375655432, 1.9006221583247844, 22.447150328667515, 156.32379287788638, 49.11752041075425, 62.635413395468746 
-163.3690564888582, 1.756629245244245, 22.44717311954295, 155.62038797504155, 49.04647744724835, 62.636209917111756 
-164.2865536487151, 1.618245903411053, 22.447193334235557, 154.91731067122103, 48.97829375250992, 62.63697468819204 
-165.20483360310666, 1.4855124388025573, 22.4472111682327, 154.21454425748794, 48.91297817474169, 62.63770756763244 
-166.12387323043478, 1.3584676640811426, 22.447226810981505, 153.51207240784785, 48.850539189100836, 62.63840842098184 
-167.04364796711545, 1.2371488697222617, 22.447240445589742, 152.80987916088006, 48.79098489681397, 62.63907712034687 
-167.96413185639784, 1.1215917958415358, 22.447252248537144, 152.10794890159067, 48.73432302430789, 62.639713544325275 
-168.8852975993727, 1.0118306047931778, 22.447262389397785, 151.4062663434744, 48.68056092235922, 62.64031757794132 
-169.8071166081278, 0.907897854610771, 22.4472710305737, 150.70481651077134, 48.629705565266484, 62.64088911258375 
-170.7295590609987, 0.8098244733601254, 22.44727832704018, 150.00358472090582, 48.58176355004728, 62.641428045945794 
-171.65259395985652, 0.7176397344720786, 22.447284426103053, 149.30255656709633, 48.53674109566355, 62.64193428196798 
-172.576189189367, 0.6313712331213402, 22.447289467168343, 148.6017179011231, 48.49464404227765, 62.64240773078331 
-173.5003115781464, 0.5510448637151213, 22.447293581524505, 147.90105481624295, 48.4554778505417, 62.64284830866553 
-174.42492696173395, 0.4766847985529199, 22.447296892137565, 147.20055363024008, 48.419247600922596, 62.643255937979816 
-175.35000024729263, 0.4083134677160949, 22.447299513459512, 146.500200868602, 48.385957993064984, 62.6436305471369 
-176.27549547994332, 0.3459515402428402, 22.447301551250067, 145.79998324781025, 48.35561334519412, 62.643972070550035 
-177.20137591063127, 0.28961790664113524, 22.447303102412196, 145.09988765873584, 48.32821759356071, 62.64428044859516 
-178.1276040654169, 0.23932966278862858, 22.44730425484146, 144.39990115012966, 48.3037742919292, 62.644555627574256 
-179.05414181607802, 0.19510209526498315, 22.44730508728952, 143.70001091219808, 48.28228661111151, 62.644797559682225 
-179.98095045190416, 0.15694866815827466, 22.44730566924189, 143.00020426025452, 48.26375733854728, 62.64500620297709 
179.09200924744, 0.12488101138305253, 22.44730606081017, 142.30046861843775, 48.248188877932144, 62.64518152135339 
178.16477693811092, 0.09890891054354806, 22.447306312638784, 141.60079150348827, 48.23558324889505, 62.64532348451976 
177.23739263747413, 0.0790402983711246, 22.44730646582654, 140.9011605085731, 48.22594208672563, 62.64543206797924 
176.3098966488193, 0.0652812477607503, 22.447306551862937, 140.20156328715146, 48.2192666421525, 62.645507253013996 
175.38232948554068, 0.057635966426503336, 22.44730659257941, 139.50198753687164, 48.215557781173054, 62.6455490266731 
174.45473179492413, 0.05610679319166822, 22.44730660011548, 138.80242098349123, 48.214815984935306, 62.64555738176428 
173.52714428168252, 0.0606941959242175, 22.447306576899994, 138.10285136481215, 48.21704134967215, 62.64553231684933 
172.5996076313834, 0.07139677112356668, 22.447306515647362, 137.40326641462158, 48.222233586688176, 62.64547383624316 
171.67216243391255, 0.08821124515995113, 22.447306399368806, 136.7036538466314, 48.230392022399194, 62.64538195001649 
170.74484910711723, 0.11113247716262582, 22.447306201398714, 136.00400133840657, 48.241515598424165, 62.64525667400253 
169.8177078207724, 0.1401534635487689, 22.44730588543589, 135.3042965152748, 48.25560287172944, 62.64509802980686 
168.89077842101076, 0.17526534417966505, 22.44730540559983, 134.6045269342091, 48.27265201482481, 62.644906044821504 
167.96410035535743, 0.21645741012658767, 22.447304706501782, 133.90468006767372, 48.29266081601075, 62.644680752242266 
167.03771259850498, 0.2637171130238218, 22.447303723330638, 133.20474328742617, 48.315626679676214, 62.644422191089724 
166.1116535789638, 0.3170300759819451, 22.44730238195342, 132.50470384826556, 48.34154662664591, 62.64413040623396 
165.18596110671743, 0.3763801060300383, 22.447300599030356, 131.8045488717185, 48.37041729457621, 62.643805448422555 
164.26067230200908, 0.4417492080512814, 22.447298282144224, 131.10426532965417, 48.402234938398394, 62.64344737431219 
163.3358235253806, 0.5131176001722771, 22.447295329943977, 130.40384002781826, 48.43699543080778, 62.64305624650351 
162.41145030908004, 0.590463730562556, 22.447291632302328, 129.7032595892771, 48.47469426279733, 62.64263213357935 
161.48758728994827, 0.6737642955969609, 22.447287070487146, 129.00251043776217, 48.51532654423409, 62.64217511014619 
160.56426814388925, 0.7629942593301219, 22.447281517346422, 128.3015787809046, 48.558887004476496, 62.641685256878574 
159.64152552202208, 0.8581268742289602, 22.44727483750649, 127.60045059334978, 48.605369993030635, 62.64116266056684 
158.71939098860594, 0.9591337031059411, 22.44726688758341, 126.89911159974159, 48.6547694802434, 62.6406074141676 
157.79789496082338, 1.0659846421931942, 22.447257516407046, 126.19754725756515, 48.70707905803003, 62.640019616856925 
156.87706665049782, 1.1786479452948175, 22.44724656525763, 125.49574273983686, 48.76229194063382, 62.6393993740865 
155.95693400781673, 1.2970902489523828, 22.44723386811456, 124.79368291763024, 48.82040096541516, 62.6387467976422 
155.0375236671214, 1.4212765985567886, 22.44721925191689, 124.09135234242551, 48.88139859366739, 62.638062005705045 
154.11886089481953, 1.5511704753374018, 22.44720253683549, 123.38873522827046, 48.945276911456254, 62.637345122914795 
153.20096953946612, 1.6867338241583016, 22.44718353655616, 122.68581543373936, 49.012027630480134, 62.63659628043513 
152.2838719840534, 1.8279270820497782, 22.4471620585736, 121.98257644367708, 49.08164208894757, 62.635815616021496 
151.36758910054036, 1.974709207402472, 22.447137904495726, 121.27900135071393, 49.154111252468965, 62.635003274090515 
150.45214020664665, 2.1270377097506015, 22.44711087035788, 120.57507283653716, 49.22942571495858, 62.634159405790896 
149.53754302492658, 2.2848686800703404, 22.4470807469467, 119.8707731529036, 49.307575699543285, 62.63328416907646 
148.62381364413287, 2.4481568215190253, 22.44704732013296, 119.16608410237812, 49.388551059474224, 62.63237772877999 
147.7109664828716, 2.616855480540908, 22.447010371213207, 118.46098701878142, 49.4723412790371, 62.63144025668867 
146.79901425554363, 2.790916678265426, 22.446969677259542, 117.75546274733043, 49.55893547445717, 62.63047193162037 
145.88796794055963, 2.9702911421243186, 22.446925011477177, 117.04949162445295, 49.648322394794235, 62.629472939500864 
144.9778367508115, 3.154928337614632, 22.446876143569284, 116.34305345725896, 49.740490422823314, 62.628443473441735 
144.06862810637415, 3.3447765001355134, 22.446822840108652, 115.63612750264856, 49.83542757589615, 62.62738373381864 
143.16034760940835, 3.539782666827748, 22.4467648649156, 114.92869244603727, 49.93312150677863, 62.62629392835011 
142.25299902122714, 3.739892708346277, 22.44670197944179, 114.22072637967712, 50.033559504459035, 62.62517427217618 
141.34658424148566, 3.945051360497262, 22.44663394315929, 113.51220678055223, 50.136728494921854, 62.62402498793713 
140.44110328944708, 4.155202255673015, 22.446560513954385, 112.80311048782588, 50.242615041881635, 62.6228463058518 
139.53655428727467, 4.370287954019576, 22.44648144852575, 112.0934136798157, 50.35120534747135, 62.62163846379549 
138.63293344529458, 4.590249974273904, 22.446396502786317, 111.38309185047197, 50.46248525287917, 62.6204017073771 
137.73023504917157, 4.81502882420932, 22.446305432268325, 110.67211978533345, 50.57644023892788, 62.61913629001542 
136.82845144893514, 5.044564030630087, 22.446207992531132, 109.96047153693404, 50.69305542659039, 62.617842473014164 
135.92757304979173, 5.278794168858281, 22.446103939571067, 109.24812039963189, 50.81231557743496, 62.61652052563599 
135.02758830465606, 5.517656891658063, 22.445993030232973, 108.53503888383216, 50.93420509399355, 62.615170725174515 
134.12848370833228, 5.761088957545137, 22.445875022622744, 107.82119868957275, 51.05870802004614, 62.61379335702512 
133.23024379327367, 6.009026258431311, 22.445749676520407, 107.10657067944148, 51.18580804081388, 62.612388714753386 
132.33285112684945, 6.2614038465566875, 22.445616753793153, 106.39112485079117, 51.31548848305383, 62.610957100161514 
131.43628631004532, 6.518155960664249, 22.445476018807828, 105.67483030721885, 51.447732315047254, 62.6094988233525 
130.54052797752428, 6.779216051374406, 22.445327238842218, 104.9576552292723, 51.58252214647396, 62.60801420279154 
129.64555279897405, 7.044516805719179, 22.445170184494785, 104.23956684434724, 51.71984022816391, 62.606503565364626 
128.7513354816682, 7.313990170798612, 22.445004630092082, 103.52053139573529, 51.85966845171805, 62.60496724643441 
127.85784877416744, 7.587567376524018, 22.444830354093547, 102.80051411078276, 52.0019883489893, 62.603405589892596 
126.96506347109033, 7.865178957415615, 22.44464713949286, 102.07947916811725, 52.146781091414475, 62.601818948209136 
126.07294841888162, 8.146754773424252, 22.444454774215693, 101.35738966389805, 52.29402748918784, 62.600207682477475 
125.18147052251088, 8.432224029749333, 22.44425305151289, 100.63420757704436, 52.443707990266354, 62.59857216245648 
124.2905947530326, 8.721515295627693, 22.44404177034902, 99.90989373339333, 52.595802679196325, 62.59691276660803 
123.40028415594487, 9.01455652207016, 22.4438207357854, 99.18440776873774, 52.750291275751096, 62.595229882130454 
122.51049986028262, 9.311275058525235, 22.443589759357295, 98.4577080906917, 52.9071531333685, 62.59352390498762 
121.62120108838708, 9.611597668451068, 22.44334865944475, 97.72975183932995, 53.06636723737686, 62.59179523993354 
120.73234516629421, 9.915450543779714, 22.443097261636535, 97.00049484654437, 53.227912202997565, 62.590044300532035 
119.84388753468933, 10.222759318259092, 22.442835399086714, 96.26989159405942, 53.39176627311183, 62.58827150917157 
118.95578176037772, 10.533449079660848, 22.442562912863437, 95.53789517004512, 53.557907315779, 62.58647729707512 
118.06797954822522, 10.847444380843736, 22.442279652289347, 94.8044572242645, 53.72631282149271, 62.58466210430432 
117.18043075352743, 11.164669249664458, 22.44198547527334, 94.06952792168933, 53.896959900161285, 62.582826379758664 
116.29308339476815, 11.485047197729772, 22.441680248633038, 93.3330558945159, 54.069825277797584, 62.580970581168785 
115.40588366673511, 11.808501227985277, 22.441363848407644, 92.59498819250953, 54.24488529290344, 62.579095175084 
114.5187759539624, 12.134953841138406, 22.441036160160774, 91.85527023160401, 54.42211589253275, 62.5772006368541 
113.63170284447675, 12.464327040914604, 22.440697079272834, 91.1138457406794, 54.601492628016715, 62.575287450604925 
112.7446051438269, 12.796542338147582, 22.440346511222458, 90.37065670643847, 54.78299065033422, 62.573356109207616 
111.85742188938305, 13.131520753705985, 22.439984371856767, 89.62564331629963, 54.96658470510923, 62.57140711424199 
110.97009036489622, 13.469182820260544, 22.43961058764999, 88.87874389922075, 55.15224912721658, 62.5694409759529 
110.08254611531508, 13.8094485828973, 22.439225095950125, 88.12989486436554, 55.33995783497642, 62.567458213200275 
109.1947229618614, 14.15223759858389, 22.43882784521324, 87.37903063752121, 55.52968432391694, 62.565459353402595 
108.30655301737255, 14.497468934497729, 22.4384187952252, 86.62608359517245, 55.721401660083814, 62.56344493247329 
107.41796670192483, 14.845061165225893, 22.437997917310344, 85.8709839961347, 55.91508247287393, 62.56141549475033 
106.5288927587573, 15.194932368848459, 22.437565194527036, 85.11365991064548, 56.11069894737001, 62.559371592918936 
105.6392582705229, 15.547000121918174, 22.437120621849544, 84.35403714681038, 56.30822281615133, 62.55731378792709 
104.74898867589923, 15.901181493351059, 22.436664206336257, 83.59203917429669, 56.50762535055477, 62.55524264889375 
