# MEX_intpoint_lon [deg], MEX_intpoint_lat [deg], MEX_intpoint_angle [deg], TGO_intpoint_lon [deg], TGO_intpoint_lat [deg], TGO_intpoint_angle [deg] 
-104.49379197575124, 20.548665656822504, 22.63033073986426, -167.9736066382896, 59.08661491921932, 62.530394515423936 
-105.39278861053252, 20.16491641662876, 22.630953936808993, -168.76944903142424, 58.86453451806949, 62.53260196615625 
-106.29007887964892, 19.782255303468094, 22.63156574731851, -169.56175316613448, 58.6439506815939, 62.53480373105193 
-107.18576057543592, 19.40077363052721, 22.632165998655562, -170.3506326437939, 58.424898832093554, 62.536999143408735 
-108.07992997657732, 19.02056203335066, 22.632754531869363, -171.1361974553676, 58.20741376683712, 62.53918754305215 
-108.9726818248201, 18.64171049017564, 22.633331201815224, -171.91855410512287, 57.99152967640983, 62.54136827652141 
-109.86410930296847, 18.26430834138158, 22.63389587715739, -172.69780572984882, 57.777280162051284, 62.54354069724769 
-110.75430401401825, 17.888444308020162, 22.634448440355367, -173.47405221372668, 57.56469825203011, 62.54570416572523 
-111.64335596130456, 17.51420650939306, 22.634988787633667, -174.24739029899092, 57.3538164171011, 62.547858049674026 
-112.53135352954423, 17.14168247964722, 22.63551682893515, -175.01791369252234, 57.144666585088125, 62.55000172419564 
-113.41838346666464, 16.77095918335909, 22.636032487857957, -175.7857131685126, 56.93728015463435, 62.55213457192083 
-114.30453086631928, 16.402123030081338, 22.636535701576268, -176.55087666733814, 56.73168800815906, 62.55425598314975 
-115.18987915099967, 16.035259887827273, 22.637026420744945, -177.31348939077967, 56.52792052405879, 62.55636535598453 
-116.07451005566166, 15.670455095469622, 22.63750460938828, -178.07363389372026, 56.326007588188176, 62.55846209645428 
-116.95850361179242, 15.307793474032334, 22.63797024477298, -178.8313901724536, 56.12597860465504, 62.56054561863235 
-117.84193813185328, 14.947359336855104, 22.63842331726568, -179.58683574973026, 55.92786250596163, 62.56261534474636 
-118.72489019404027, 14.589236498612282, 22.63886383017502, 179.65995424333386, 55.73168776252342, 62.56467070528059 
-119.60743462731327, 14.233508283168687, 22.63929179957873, 178.90890698836384, 55.5374823915945, 62.56671113907083 
-120.4896444966509, 13.880257530256893, 22.639707254135885, 178.1599519037304, 55.345273965627925, 62.56873609339245 
-121.37159108849676, 13.529566600961271, 22.640110234884556, 177.41302057133592, 55.15508962009756, 62.570745024040384 
-122.25334389636829, 13.181517381996018, 22.640500795025236, 176.66804666607237, 54.96695606080717, 62.57273739540275 
-123.13497060660777, 12.836191288765303, 22.640878999690294, 175.92496588784172, 54.78089957071088, 62.57471268052678 
-124.01653708426046, 12.493669267195427, 22.641244925699766, 175.18371589603558, 54.596946016268376, 62.57667036117821 
-124.89810735907237, 12.15403179432993, 22.64159866130392, 174.4442362463719, 54.41512085335707, 62.57860992789344 
-125.77974361160526, 11.817358877680286, 22.64194030591282, 173.70646832999236, 54.23544913276216, 62.58053088002518 
-126.66150615947366, 11.483730053326152, 22.642269969813366, 172.97035531472554, 54.0579555052653, 62.582432725781345 
-127.54345344371424, 11.15322438276055, 22.64258777387411, 172.2358420884251, 53.88266422635059, 62.584314982257496 
-128.42564201530294, 10.825920448477046, 22.642893849238337, 171.50287520429606, 53.709599160547064, 62.586177175462716 
-129.30812652184207, 10.501896348297485, 22.64318833700579, 170.77140282812368, 53.53878378542476, 62.58801884033964 
-130.1909596944434, 10.181229688440597, 22.643471387903418, 170.04137468732506, 53.370241195261855, 62.58983952077785 
-131.07419233484055, 9.863997575333121, 22.64374316194567, 169.31274202174407, 53.20399410439866, 62.59163876962186 
-131.9578733027659, 9.550276606167577, 22.64400382808477, 168.5854575361154, 53.040064850294314, 62.59341614867286 
-132.8420495036359, 9.240142858211698, 22.64425356385138, 167.8594753541245, 52.87847539630094, 62.595171228685125 
-133.72676587658927, 8.933671876877415, 22.644492554986236, 167.13475097399473, 52.7192473341696, 62.59690358935703 
-134.61206538293013, 8.630938662558469, 22.64472099506316, 166.41124122553404, 52.56240188630176, 62.598612819316315 
-135.4979889950303, 8.332017656248246, 22.644939085103974, 165.6889042285779, 52.407959907759476, 62.60029851610083 
-136.3845756857501, 8.036982723951281, 22.64514703318589, 164.96769935276572, 52.25594188804697, 62.60196028613399 
-137.2718624184394, 7.745907139904392, 22.645345054041726, 164.24758717859257, 52.1063679526756, 62.60359774469558 
-138.1598841375857, 7.458863568625216, 22.64553336865374, 163.5285294596788, 51.95925786452425, 62.60521051588803 
-139.04867376017765, 7.175924045808616, 22.645712203841367, 162.8104890862029, 51.814631025006044, 62.6067982325983 
-139.93826216785655, 6.8971599580937495, 22.645881791843525, 162.0934300494457, 51.672506475052494, 62.60836053645566 
-140.82867819992975, 6.622642021726809, 22.64604236989611, 161.37731740739486, 51.53290289592538, 62.60989707778545 
-141.7199486473237, 6.352440260147398, 22.64619417980501, 160.66211725136253, 51.39583860986649, 62.61140751555918 
-142.6120982475544, 6.086623980528645, 22.646337467515487, 159.94779667356892, 51.26133158059489, 62.612891517340884 
-143.5051496807967, 5.825261749304006, 22.646472482678252, 159.23432373564793, 51.129399413661154, 62.614348759230325 
-144.39912356713378, 5.568421366716314, 22.64659947821299, 158.52166743803213, 51.00005935666738, 62.61577892580308 
-145.29403846506938, 5.316169840427338, 22.646718709869738, 157.80979769017645, 50.87332829936204, 62.61718171004743 
-146.18991087138616, 5.06857335822877, 22.646830435788868, 157.09868528158157, 50.74922277361781, 62.6185568132989 
-147.08675522243396, 4.825697259898239, 22.64693491606012, 156.3883018535787, 50.627758953300535, 62.61990394517202 
-147.98458389693027, 4.587606008246934, 22.647032412281334, 155.67861987184125, 50.5089526540374, 62.621222823489916 
-148.8834072203564, 4.354363159407609, 22.647123187117423, 154.9696125995875, 50.392819332891634, 62.62251317421184 
-149.78323347103, 4.1260313324151445, 22.647207503860248, 154.26125407144218, 50.27937408795119, 62.62377473135885 
-150.68406888793444, 3.902672178133778, 22.64728562598982, 153.55351906792473, 50.16863165783861, 62.62500723693779 
-151.58591768038244, 3.6843463475882707, 22.647357816737607, 152.84638309053454, 50.06060642114875, 62.62621044086381 
-152.48878203958998, 3.471113459758535, 22.64742433865235, 152.1398223374034, 49.95531239582106, 62.62738410088191 
-153.39266215223333, 3.2630320688998276, 22.647485453169057, 151.4338136794875, 49.852763238452916, 62.62852798248711 
-154.29755621605764, 3.0601596314530646, 22.647541420181685, 150.7283346372732, 49.75297224356014, 62.62964185884419 
-155.20346045760425, 2.862552472611856, 22.647592497620167, 150.0233633579689, 49.65595234279054, 62.63072551070656 
-156.11036915211693, 2.670265752615385, 22.6476389410322, 149.3188785931608, 49.56171610409671, 62.63177872633501 
-157.01827464568427, 2.4833534328380438, 22.647681003170472, 148.61485967690774, 49.470275730873084, 62.63280130141601 
-157.92716737967032, 2.3018682417486107, 22.64771893358586, 147.91128650425244, 49.381643061063166, 62.63379303898039 
-158.83703591747906, 2.125861640813693, 22.64775297822698, 147.20813951012872, 49.29582956624189, 62.63475374932185 
-159.74786697369345, 1.9553837904214717, 22.647783379046867, 146.50539964864225, 49.21284635067822, 62.63568324991633 
-160.6596454456231, 1.7904835159032533, 22.64781037361715, 145.8030483727071, 49.13270415038274, 62.63658136534163 
-161.57235444728758, 1.6312082737315028, 22.647834194750185, 145.10106761401678, 49.05541333214518, 62.63744792719809 
-162.48597534585568, 1.4776041179739214, 22.647855070129797, 144.39943976333373, 48.98098389256608, 62.6382827740301 
-163.4004878005541, 1.3297156670837558, 22.64787322195103, 143.69814765107782, 48.90942545708707, 62.63908575124904 
-164.31586980405035, 1.1875860711071162, 22.64788886656937, 142.99717452819834, 48.84074727902397, 62.639856711057234 
-165.23209772630736, 1.0512569793882065, 22.64790221415997, 142.29650404731285, 48.77495823860668, 62.64059551237379 
-166.14914636089944, 0.9207685088532688, 22.64791346838723, 141.5961202440975, 48.7120668420296, 62.64130202076189 
-167.06698897377004, 0.796159212953761, 22.64792282608528, 140.89600751891376, 48.65208122051643, 62.64197610835809 
-167.9855973544047, 0.6774660513485921, 22.647930476949732, 140.19615061865727, 48.59500912940267, 62.64261765380359 
-168.904941869382, 0.5647243604044629, 22.647936603241064, 139.49653461881582, 48.540857947239346, 62.64322654217759 
-169.82499151825903, 0.4579678245919367, 22.6479413795002, 138.79714490572155, 48.48963467492104, 62.64380266493329 
-170.74571399173755, 0.35722844885363725, 22.64794497227638, 138.09796715898656, 48.44134593484125, 62.64434591983592 
-171.6670757320489, 0.26253653201894406, 22.647947539867985, 137.39898733410814, 48.39599797007803, 62.64485621090374 
-172.58904199548778, 0.17392064133764942, 22.64794923207647, 136.70019164523242, 48.35359664361258, 62.645333448351536 
-173.5115769170157, 0.09140758820250373, 22.647950189973734, 136.00156654806491, 48.31414743758327, 62.645777548537126 
-174.43464357684755, 0.015022405128155664, 22.64795054568344, 135.3030987229169, 48.27765545257767, 62.64618843391072 
-175.35820406892623, -0.055211675949324544, 22.647950422176205, 134.60477505787657, 48.24412540696457, 62.64656603296732 
-176.28221957118268, -0.11927324399085223, 22.647949933079353, 133.9065826320952, 48.2135616362684, 62.646910280202626 
-177.206650417472, -0.177142727733227, 22.647949182501137, 133.20850869917734, 48.185968092587636, 62.647221116071655 
-178.1314561710679, -0.2288024130743022, 22.64794826486987, 132.51054067066616, 48.161348344059235, 62.64749848695127 
-179.05659569959306, -0.2742364589145083, 22.64794726478816, 131.81266609961352, 48.13970557437049, 62.647742345105854 
-179.98202725125483, -0.31343091140883245, 22.647946256902273, 131.11487266422614, 48.121042582320015, 62.6479526486565 
179.09229146774751, -0.3463737165878415, 22.647945305787047, 130.417148151578, 48.1053617814288, 62.648129361553885 
178.1664032147854, -0.3730547313108289, 22.647944465846308, 129.71948044138085, 48.09266519960291, 62.64827245355474 
177.24035113147698, -0.3934657325189638, 22.64794378122908, 129.021857489803, 48.08295447884844, 62.64838190020202 
176.3141786636257, -0.40760042476127856, 22.647943285761524, 128.3242673133287, 48.076230875039705, 62.64845768280872 
175.38792948057247, -0.41545444597117887, 22.64794300289486, 127.6266979726488, 48.07249525774137, 62.6484997884455 
174.46164739411626, -0.4170253714764905, 22.647942945669264, 126.9291375565748, 48.07174811008505, 62.64850820993223 
173.53537627715883, -0.4123127162311062, 22.64794311669375, 126.23157416596709, 48.073989528700494, 62.64848294583312 
172.609159982231, -0.4013179352616542, 22.64794350814223, 125.53399589766995, 48.07921922370188, 62.64842400045583 
171.6830422600586, -0.3840444223278369, 22.647944101765493, 124.83639082844427, 48.08743651872906, 62.64833138385417 
170.75706667832543, -0.36049750680044895, 22.647944868919332, 124.13874699888954, 48.09864035104372, 62.64820511183504 
169.83127654079013, -0.33068444876624375, 22.64794577060864, 123.44105239734753, 48.112829271680035, 62.648045205968664 
168.9057148069126, -0.29461443237426743, 22.647946757547526, 122.74329494377817, 48.130001445649654, 62.647851693602995 
167.98042401214252, -0.2522985574431849, 22.647947770235156, 122.04546247359974, 48.1501546522001, 62.647624607881546 
167.05544618902013, -0.20374982935440414, 22.64794873904757, 121.34754272148477, 48.173286285126196, 62.647363987765324 
166.13082278923633, -0.1489831472607026, 22.647949584344982, 120.64952330510236, 48.19939335313322, 62.64706987805794 
165.20659460679397, -0.08801529064481221, 22.647950216594655, 119.9513917087989, 48.228472480251064, 62.646742329434694 
164.2828017024081, -0.020864904267194957, 22.647950536509114, 119.25313526720699, 48.260519906298015, 62.646381398475185 
163.359483329278, 0.05244751845328586, 22.64795043519954, 118.55474114877464, 48.29553148739279, 62.6459871476991 
162.43667786035658, 0.1318996535779095, 22.647949794344076, 117.85619633920402, 48.33350269651327, 62.64555964560575 
161.51442271723835, 0.2174673662537387, 22.647948486370883, 117.15748762479112, 48.37442862410041, 62.64509896671679 
160.5927543007788, 0.3091247317305106, 22.647946374655724, 116.45860157565544, 48.418303978705204, 62.64460519162205 
159.67170792355137, 0.40684405772924453, 22.647943313733684, 115.75952452885032, 48.46512308767694, 62.644078407028765 
158.751317744241, 0.5105959080997633, 22.647939149524927, 115.06024257134254, 48.514879897890516, 62.64351870581352 
157.8316167040653, 0.6203491277011632, 22.647933719574052, 114.36074152285094, 48.56756797651034, 62.64292618707728 
156.91263646530587, 0.7360708684365543, 22.647926853302767, 113.66100691853237, 48.62318051178864, 62.642300956203364 
155.99440735202438, 0.8577266163708096, 22.647918372275583, 112.96102399150348, 48.68171031389527, 62.64164312491768 
155.0769582930298, 0.9852802198578482, 22.64790809047813, 112.26077765518632, 48.7431498157764, 62.640952811351774 
154.1603167671538, 1.1186939186020537, 22.647895814607725, 111.56025248546501, 48.807491074038985, 62.64023014010836 
153.24450875088385, 1.2579283735768014, 22.64788134437584, 110.85943270264079, 48.87472576985812, 62.63947524232887 
152.32955866839401, 1.4029426977216897, 22.647864472822086, 110.15830215317156, 48.94484520990378, 62.638688255763135 
151.41548934400507, 1.5536944873389846, 22.64784498663918, 109.4568442911824, 49.0178403272837, 62.63786932484137 
150.50232195709748, 1.7101398541091493, 22.647822666508624, 108.75504215973184, 49.09370168249861, 62.63701860074719 
149.5900759994916, 1.8722334576446673, 22.64779728744653, 108.05287837181939, 49.1724194644063, 62.636136241493205 
148.6787692353023, 2.039928538501343, 22.647768619159198, 107.35033509111774, 49.25398349119046, 62.63522241199733 
147.76841766326604, 2.2131769515661754, 22.647736426407928, 106.64739401241398, 49.338383211330104, 62.63427728416059 
146.8590354815317, 2.391929199741279, 22.64770046938267, 105.94403634174213, 49.42560770456573, 62.633301036946186 
145.95063505489784, 2.5761344678440263, 22.647660504083863, 105.24024277618915, 49.51564568285715, 62.63229385645921 
145.04322688447374, 2.765740656644108, 22.64761628271214, 104.5359934833561, 49.60848549132912, 62.63125593602723 
144.13681957973165, 2.9606944169596043, 22.647567554065276, 103.83126808045458, 49.7041151091994, 62.63018747628142 
143.2314198329151, 3.16094118373503, 22.647514063941813, 103.12604561301877, 49.80252215068464, 62.62908868523798 
142.32703239575827, 3.366425210026215, 22.647455555550998, 102.42030453321112, 49.90369386587887, 62.62795977837962 
141.42366005846867, 3.5770896008180038, 22.647391769928305, 101.71402267770043, 50.00761714159932, 62.62680097873708 
140.52130363091754, 3.7928763466030637, 22.647322446356082, 101.00717724508871, 50.11427850219388, 62.62561251697035 
139.61996192598008, 4.013726356651657, 22.647247322788804, 100.29974477286342, 50.22366411030489, 62.62439463144947 
138.71963174496088, 4.239579491904646, 22.64716613628229, 99.59170111384914, 50.335759767582886, 62.62314756833438 
137.8203078650375, 4.470374597423984, 22.647078623426335, 98.88302141213354, 50.450550915344685, 62.62187158165441 
136.92198302865106, 4.706049534337371, 22.646984520780286, 98.17368007843976, 50.56802263516908, 62.62056693338595 
136.024647934769, 4.9465412112164335, 22.646883565310805, 97.46365076491668, 50.68815964942401, 62.619233893529504 
135.12829123194433, 5.191785614829733, 22.646775494831427, 96.75290633931789, 50.81094632171808, 62.61787274018467 
134.23289951309124, 5.441717840215169, 22.646660048443223, 96.04141885853781, 50.93636665726976, 62.616483759623655 
133.33845731189714, 5.696272120018422, 22.64653696697596, 95.3291595414731, 51.064404303186976, 62.61506724636281 
132.44494710078843, 5.955381853047166, 22.646405993429358, 94.61609874117515, 51.1950425486494, 62.61362350323185 
131.552349290368, 6.218979631993113, 22.646266873413648, 93.90220591625896, 51.328264324986066, 62.6121528414408 
130.66064223023992, 6.486997270277124, 22.646119355588908, 93.18744960153131, 51.46405220564018, 62.61065558064432 
129.76980221113928, 6.759365827974773, 22.645963192102755, 92.47179737780014, 51.60238840601257, 62.609132049003186 
128.87980346828286, 7.036015636783089, 22.64579813902554, 91.75521584082503, 51.74325478317587, 62.60758258324272 
127.99061818585973, 7.316876323991333, 22.645623956782785, 91.0376705693673, 51.88663283544975, 62.60600752870802 
127.10221650257911, 7.601876835421704, 22.64544041058397, 90.31912609229629, 52.032503701828695, 62.604407239415806 
126.21456651819699, 7.890945457308462, 22.645247270847378, 89.59954585470616, 52.1808481612524, 62.60278207810237 
125.32763430094329, 8.184009837086236, 22.645044313620293, 88.87889218299668, 52.331646631709084, 62.601132416268015 
124.4413838957734, 8.480997003061386, 22.644831320994, 88.15712624886788, 52.48487916916129, 62.59945863421713 
123.55577733337128, 8.781833382942109, 22.644608081513105, 87.43420803217822, 52.640525466283805, 62.5977611210942 
122.67077463983314, 9.0864448212061, 22.64437439057856, 86.71009628261201, 52.798564851002425, 62.596040274915254 
121.78633384696482, 9.394756595286283, 22.644130050843923, 85.9847484801009, 52.95897628482205, 62.5942965025947 
120.90241100312761, 9.706693430558017, 22.643874872604275, 85.25812079394098, 53.12173836093249, 62.59253021996733 
120.0189601845728, 10.022179514112858, 22.643608674177305, 84.53016804054559, 53.286829302079205, 62.59074185180543 
119.1359335072076, 10.341138507306644, 22.643331282276105, 83.80084363977026, 53.45422695818623, 62.58893183183042 
118.25328113873928, 10.66349355707131, 22.643042532372977, 83.07009956974495, 53.62390880371797, 62.587100602719296 
117.3709513111499, 10.989167305982045, 22.642742269054146, 82.33788632014476, 53.79585193476547, 62.58524861610566 
116.4888903334562, 11.318081901073505, 22.642430346364446, 81.60415284382874, 53.970033065843104, 62.583376332574744 
115.6070426047166, 11.650159001400203, 22.64210662814187, 80.86884650677267, 54.14642852637989, 62.58148422165272 
114.72535062724945, 11.985319784338568, 22.641770988341428, 80.13191303621927, 54.32501425689006, 62.57957276179016 
113.84375502003417, 12.323484950629314, 22.641423311347737, 79.39329646696623, 54.50576580480583, 62.577642440338984 
112.96219453227009, 12.664574728161075, 22.641063492276185, 78.65293908570901, 54.688658319955536, 62.57569375352336 
112.08060605707529, 13.00850887449713, 22.640691437262003, 77.91078137335285, 54.87366654966857, 62.573727206403944 
111.19892464531111, 13.355206678149337, 22.640307063737044, 77.16676194520443, 55.06076483348855, 62.57174331283579 
110.31708351952608, 13.704586958604372, 22.63991030069374, 76.42081748895096, 55.249927097474796, 62.56974259541944 
109.4350140880175, 14.056568065109023, 22.63950108893597, 75.6728827003309, 55.44112684807132, 62.56772558544497 
108.5526459590152, 14.411067874222917, 22.639079381316524, 74.92289021639654, 55.63433716552187, 62.56569282282964 
107.66990695499963, 14.768003786147991, 22.638645142960627, 74.17077054626675, 55.82953069680808, 62.563644856047866 
106.78672312717106, 15.127292719845958, 22.638198351475495, 73.41645199926235, 56.02667964808719, 62.5615822420546 
105.90301877009523, 15.488851106955902, 22.63773899714537, 72.65986061031592, 56.22575577660413, 62.5595055462012 
105.01871643655637, 15.852594884525866, 22.637267083111954, 71.90092006254157, 56.42673038205214, 62.55741534214403 
