# MEX_intpoint_lon [deg], MEX_intpoint_lat [deg], MEX_intpoint_angle [deg], TGO_intpoint_lon [deg], TGO_intpoint_lat [deg], TGO_intpoint_angle [deg] 
-104.44858982339079, 20.53840054958351, 22.60284783140626, -166.300920793738, 59.109412413497516, 62.52988653011629 
-105.34843710878091, 20.15606225354752, 22.603467669059242, -167.09804589366084, 58.88802138049073, 62.53208612110652 
-106.24657887325307, 19.774804081567407, 22.60407621687426, -167.89162242143775, 58.668119163596224, 62.534280066609206 
-107.1431123217782, 19.39471720273982, 22.604673302991074, -168.681763947174, 58.44974121600169, 62.536467702255905 
-108.03813316394721, 19.01589210973059, 22.605258769218818, -169.4685804447964, 58.2329223641138, 62.538648370158256 
-108.93173559017356, 18.63841863876975, 22.605832471055535, -170.25217841464058, 58.017696825918314, 62.54082141909336 
-109.82401224919302, 18.262385988777368, 22.606394277691265, -171.03266100163185, 57.804098228333366, 62.54298620468152 
-110.71505422672232, 17.887882739585578, 22.60694407199457, -171.81012810919339, 57.592159623603145, 62.54514208955674 
-111.60495102515107, 17.51499686922367, 22.607481750482766, -172.5846765090178, 57.38191350477702, 62.54728844352932 
-112.49379054414842, 17.143815770235932, 22.608007223275834, -173.35639994683734, 57.17339182031771, 62.54942464374095 
-113.38165906207739, 16.774426265003246, 22.608520414034018, -174.12538924432783, 56.96662598787887, 62.55155007481237 
-114.26864121811698, 16.406914620041853, 22.609021259879423, -174.89173239727913, 56.76164690729174, 62.553664128983144 
-115.15481999500247, 16.041366559254204, 22.609509711301698, -175.6555146701647, 56.55848497279779, 62.555766206244165 
-116.04027670230211, 15.677867276108318, 22.609985732047846, -176.41681868723987, 56.35717008456305, 62.55785571446239 
-116.92509096015648, 15.316501444724183, 22.610449298996457, -177.17572452029523, 56.15773165950787, 62.55993206949824 
-117.80934068341608, 14.957353229846689, 22.610900402016597, -177.93230977319146, 55.96019864148427, 62.56199469531545 
-118.69310206611864, 14.60050629568652, 22.61133904381141, -178.68664966329553, 55.76459951083181, 62.564043024083496 
-119.57644956625735, 14.246043813611493, 22.611765239746845, -179.43881709993852, 55.57096229334111, 62.56607649627274 
-120.45945589079683, 13.894048468672727, 22.612179017665643, 179.81111723999027, 55.37931456865291, 62.568094560742246 
-121.34219198090211, 13.544602464950755, 22.61258041768687, 179.06308483919986, 55.18968347811948, 62.570096674820384 
-122.22472699735204, 13.197787529708812, 22.61296949199138, 178.31701926979636, 55.002095732153585, 62.57208230437835 
-123.10712830611587, 12.853684916341264, 22.613346304593335, 177.5728561256176, 54.81657761708942, 62.57405092389662 
-123.98946146407799, 12.512375406107056, 22.61371093109832, 176.8305329570014, 54.633155001578544, 62.57600201652453 
-124.87179020490265, 12.173939308638973, 22.61406345844818, 176.08998920788827, 54.451853342542854, 62.57793507413282 
-125.75417642503606, 11.838456461221368, 22.614403984653052, 175.3511661551632, 54.27269769070597, 62.57984959735983 
-126.6366801698497, 11.506006226830312, 22.61473261851101, 174.6140068501431, 54.095712695722916, 62.581745095650774 
-127.51935961993512, 11.176667490931361, 22.615049479315527, 173.87845606212116, 53.92092261092746, 62.58362108729063 
-128.4022710775646, 10.850518657032206, 22.615354696551332, 173.14446022388185, 53.74835129771569, 62.58547709943075 
-129.28546895333938, 10.527637640988504, 22.61564840957899, 172.41196737910354, 53.5780222295833, 62.587312668109256 
-130.169005753051, 10.208101864063341, 22.61593076730859, 171.68092713156844, 53.409958495833635, 62.58912733826537 
-131.0529320647875, 9.891988244741961, 22.61620192786315, 170.9512905961029, 53.24418280497251, 62.59092066374774 
-131.93729654632028, 9.57937318930571, 22.616462058231935, 170.22301035117428, 53.080717487805586, 62.59269220731715 
-132.82214591281272, 9.270332581170456, 22.616711333914438, 169.49604039307224, 52.91958450025278, 62.5944415406436 
-133.70752492489652, 8.964941768997074, 22.6169499385552, 168.7703360916064, 52.76080542589439, 62.596168244297985 
-134.59347637716448, 8.663275553583262, 22.617178063570247, 168.04585414725412, 52.60440147826238, 62.59787190773842 
-135.48004108713485, 8.365408173548104, 22.61739590776543, 167.32255254969527, 52.450393502890016, 62.59955212929157 
-136.3672578847444, 8.071413289822896, 22.617603676947272, 166.6003905376721, 52.29880197913252, 62.601208516129105 
-137.25516360243145, 7.781363968964028, 22.61780158352681, 165.8793285601169, 52.14964702177091, 62.602840684239375 
-138.14379306587435, 7.495332665305724, 22.61798984611697, 165.15932823849056, 52.002948382410715, 62.60444825839469 
-139.0331790854529, 7.213391201972924, 22.618168689123983, 164.4403523302775, 51.85872545068662, 62.60603087211403 
-139.92335244850344, 6.93561075077713, 22.618338342333455, 163.72236469358643, 51.7169972552842, 62.60758816762193 
-140.81434191244142, 6.66206181101995, 22.61849904049152, 163.0053302528056, 51.57778246478893, 62.6091197958031 
-141.7061741988266, 6.392814187232282, 22.618651022881693, 162.28921496526644, 51.44109938837251, 62.610625416153525 
-142.59887398844862, 6.127936965878993, 22.618794532898065, 161.57398578886807, 51.30696597632637, 62.61210469672808 
-143.49246391751228, 5.867498491061924, 22.61892981761523, 160.8596106506203, 51.17539982045155, 62.6135573140846 
-144.38696457500276, 5.611566339256481, 22.619057127355617, 160.14605841606155, 51.04641815431396, 62.61498295322489 
-145.28239450131207, 5.360207293119897, 22.619176715254845, 159.43329885951232, 50.92003785337393, 62.61638130753306 
-146.17877018820866, 5.113487314411768, 22.619288836825522, 158.72130263512474, 50.79627543499811, 62.617752078710794 
-147.07610608023262, 4.871471516070166, 22.619393749520206, 158.01004124869124, 50.67514705836223, 62.619094976710386 
-147.9744145775975, 4.634224133489519, 22.619491712294053, 157.2994870301768, 50.55666852425224, 62.6204097196654 
-148.87370604068045, 4.40180849504882, 22.619582985167686, 156.58961310694016, 50.440855274771565, 62.62169603381928 
-149.77398879618025, 4.1742869919416625, 22.619667828790917, 155.88039337761163, 50.32772239296183, 62.62295365345222 
-150.67526914502272, 3.9517210473620317, 22.619746504007917, 155.17180248659574, 50.217284602343994, 62.62418232080597 
-151.57755137208844, 3.734171085102478, 22.619819271424305, 154.46381579916897, 50.10955626638697, 62.62538178600795 
-152.48083775783877, 3.5216964976237186, 22.61988639097683, 153.75640937714311, 50.004551387910034, 62.62655180699343 
-153.38512859191044, 3.314355613657266, 22.61994812150617, 153.04955995506708, 49.90228360842578, 62.627692149427105 
-154.290422188747, 3.1122056654049413, 22.62000472033342, 152.3432449169403, 49.802766207429535, 62.62880258662371 
-155.1967149053319, 2.915302755401376, 22.620056442840806, 151.63744227341266, 49.706012101641306, 62.62988289946826 
-156.1040011610831, 2.7237018231078634, 22.62010354205721, 150.93213063944563, 49.61203384420613, 62.630932876335564 
-157.01227345996477, 2.537456611307791, 22.620146268249012, 150.22728921241276, 49.52084362385829, 62.63195231300987 
-157.9215224148673, 2.3566196323757937, 22.620184868516915, 149.5228977506154, 49.432453264054764, 62.632941012604356 
-158.8317367742996, 2.181242134494434, 22.620219586399017, 148.81893655219363, 49.346874222083336, 62.63389878548097 
-159.74290345143476, 2.0113740678938083, 22.62025066148098, 148.11538643441065, 49.26411758815007, 62.63482544917049 
-160.6550075555403, 1.8470640511906609, 22.620278329013566, 147.41222871329154, 49.184194084451335, 62.635720828293465 
-161.56803242582097, 1.6883593379049167, 22.62030281953818, 146.70944518359738, 49.107114064234715, 62.63658475448168 
-162.48195966769285, 1.5353057832321886, 22.620324358520836, 146.00701809911627, 49.032887510853634, 62.637417066300785 
-163.39676919150156, 1.3879478111517323, 22.62034316599509, 145.30493015325376, 48.961524036819704, 62.63821760917406 
-164.31243925368912, 1.2463283819495947, 22.620359456214395, 144.60316445990645, 48.8930328828572, 62.63898623530739 
-165.22894650040632, 1.110488960236974, 22.620373437314264, 143.90170453460215, 48.82742291696352, 62.63972280361593 
-166.14626601356034, 0.9804694835436485, 22.62038531098486, 143.20053427589136, 48.76470263347948, 62.64042717965234 
-167.06437135927726, 0.8563083315660612, 22.620395272154255, 142.4996379469752, 48.70488015217321, 62.641099235536885 
-167.9832346387532, 0.7380422961489786, 22.620403508682895, 141.79900015755558, 48.6479632173409, 62.64173884988953 
-168.90282654145722, 0.6257065520787193, 22.620410201069678, 141.0986058458937, 48.593959196928054, 62.642345907764195 
-169.82311640064194, 0.5193346287647792, 22.62041552216994, 140.39844026106385, 48.542875081674175, 62.642920300585324 
-170.74407225110886, 0.4189583828852113, 22.620419636925806, 139.6984889453898, 48.49471748428405, 62.64346192608683 
-171.66566088916736, 0.32460797206928016, 22.620422702109302, 138.99873771705126, 48.449492638628456, 62.64397068825355 
-172.58784793471665, 0.2363118296889032, 22.62042486607843, 138.29917265284854, 48.40720639897693, 62.64444649726579 
-173.5105978953739, 0.15409664082800867, 22.620426268546662, 137.5997800711147, 48.36786423926529, 62.64488926944595 
-174.4338742325615, 0.07798731949636091, 22.62042704036609, 136.90054651476277, 48.33147125240008, 62.64529892720887 
-175.3576394294601, 0.00800698715139752, 22.62042730332451, 136.20145873445873, 48.29803214960249, 62.6456753990147 
-176.28185506072572, -0.05582304741147266, 22.620427169956844, 135.50250367190876, 48.267551259793464, 62.646018619325126 
-177.20648186386222, -0.1134833067431198, 22.62042674337089, 134.80366844325135, 48.240032529022194, 62.64632852856275 
-178.13147981213365, -0.16495616194617727, 22.62042611708789, 134.10494032254405, 48.215479519939606, 62.64660507307381 
-179.05680818889488, -0.21022584835241456, 22.62042537489807, 133.40630672533547, 48.193895411318564, 62.64684820509433 
-179.98242566321147, -0.24927847962668878, 22.620424590731137, 132.70775519231296, 48.175282997622084, 62.647057882719736 
179.09170963336345, -0.28210206025661994, 22.6204238285422, 132.00927337301738, 48.15964468862102, 62.64723406987792 
178.16564002899443, -0.3086864963915211, 22.620423142213145, 131.31084900961497, 48.14698250906225, 62.64737673630606 
177.23940823289396, -0.3290236049989928, 22.620422575469448, 130.61246992071867, 48.13729809838839, 62.647485857531 
176.31305725592398, -0.34310712131215304, 22.620422161812858, 129.91412398524926, 48.1305927105098, 62.6475614148532 
175.38663033061837, -0.35093270454577224, 22.62042192446967, 129.21579912632828, 48.12686721362967, 62.647603395334635 
174.46017083077953, -0.3524979418642837, 22.620421876355014, 128.51748329519407, 48.126122090122514, 62.647611791790226 
173.53372219080202, -0.3478023505900763, 22.620422020052906, 127.8191644551323, 48.12835743646662, 62.647586602783235 
172.60732782487977, -0.33684737864547204, 22.620422347812294, 127.12083056541309, 48.13357296323051, 62.64752783262422 
171.68103104625206, -0.3196364032271022, 22.62042284155897, 126.42246956522573, 48.14176799511355, 62.647435491373884 
170.75487498664415, -0.296174727716613, 22.620423472923438, 125.7240693576031, 48.15294147104038, 62.647309594849695 
169.82890251605787, -0.266469576836812, 22.620424203284657, 125.02561779332726, 48.16709194430935, 62.64715016463626 
168.90315616306444, -0.23053009006754666, 22.620424983829537, 124.32710265480748, 48.18421758279393, 62.64695722809938 
167.977678035752, -0.18836731334076262, 22.62042575562821, 123.62851163992248, 48.20431616919698, 62.64673081840378 
167.05250974347524, -0.13999418903905497, 22.620426449724967, 122.92983234581826, 48.2273851013569, 62.64647097453471 
166.12769231955193, -0.08542554432711905, 22.620426987244624, 122.23105225265246, 48.25342139260486, 62.64617774132282 
165.20326614504762, -0.024678077850104653, 22.620427279514313, 121.53215870727672, 48.28242167217195, 62.64585116947301 
164.2792708737839, 0.04222965516246878, 22.620427228200512, 120.8331389068476, 48.31438218564518, 62.64549131559637 
163.35574535870143, 0.11527725934400336, 22.620426725461016, 120.13397988235734, 48.34929879547084, 62.64509824224591 
162.43272757970266, 0.19444251714217056, 22.620425654111767, 119.43466848207429, 48.387166981503675, 62.64467201795545 
161.51025457309288, 0.27970140822274997, 22.62042388780835, 118.73519135488401, 48.42798184160032, 62.644212717281796 
160.58836236273214, 0.37102813027092285, 22.620421291241747, 118.03553493352047, 48.47173809225507, 62.64372042085027 
159.6670858930028, 0.4683951211311834, 22.620417720348257, 117.33568541767768, 48.51843006927596, 62.64319521540305 
158.74645896369057, 0.5717730822239006, 22.620413022533203, 116.6356287569906, 48.56805172849903, 62.6426371938508 
157.82651416686943, 0.6811310031734107, 22.620407036908198, 115.93535063387498, 48.62059664653855, 62.642046455327005 
156.9072828258715, 0.7964361875797247, 22.62039959454159, 115.23483644621436, 48.676058021570555, 62.641423105245025 
155.98879493641712, 0.9176542798636298, 22.620390518721777, 114.53407128988313, 48.73442867414722, 62.64076725535788 
155.0710791099694, 1.0447492931124895, 22.620379625233095, 113.83303994109299, 48.79570104803925, 62.640079023820554 
154.15416251937154, 1.1776836378523035, 22.6203667226438, 113.13172683855085, 48.8598672111033, 62.63935853525457 
153.23807084681482, 1.3164181516699822, 22.62035161260587, 112.43011606541482, 48.92691885617135, 62.63860592081483 
152.3228282341776, 1.4609121296082768, 22.6203340901662, 111.72819133103498, 48.996847301958844, 62.63782131825864 
151.40845723576763, 1.611123355254931, 22.62031394408871, 111.02593595246498, 49.069643493988046, 62.6370048720163 
150.49497877348995, 1.767008132446766, 22.620290957187066, 110.32333283572964, 49.1452980055231, 62.63615673326402 
149.58241209445652, 1.9285213175089095, 22.620264906667405, 109.620364456834, 49.22380103851307, 62.635277059997854 
148.6707747310437, 2.0956163519492654, 22.620235564480826, 108.91701284249704, 49.305142424539056, 62.634366017109514 
147.7600824633973, 2.2682452955282137, 22.620202697684945, 108.2132595505949, 49.38931162576121, 62.63342377646303 
146.8503492843761, 2.4463588596239583, 22.620166068814232, 107.50908565029555, 49.47629773586148, 62.63245051697296 
145.94158736691807, 2.6299064408145543, 22.620125436258526, 106.80447170186739, 49.56608948097783, 62.63144642468294 
145.03380703380634, 2.8188361545981206, 22.620080554649245, 106.09939773614349, 49.658675220625, 62.6304116928454 
144.1270167298047, 3.013094869174274, 22.620031175252834, 105.39384323362164, 49.75404294859731, 62.6293465220016 
143.2212229961266, 3.212628239210492, 22.619977046370867, 104.68778710318037, 49.85218029384862, 62.62825112006192 
142.31643044719564, 3.417380739518975, 22.619917913746303, 103.98120766038971, 49.95307452134405, 62.62712570238644 
141.41264174964857, 3.6272956985708906, 22.61985352097536, 103.27408260539491, 50.056712532878436, 62.62597049186524 
140.5098576035291, 3.842315331776886, 22.619783609924472, 102.56638900034999, 50.16308086785591, 62.62478571899863 
139.60807672561327, 4.062380774464445, 22.619707921151726, 101.85810324637755, 50.27216570402491, 62.6235716219768 
138.70729583480477, 4.287432114484976, 22.619626194332337, 101.14920106002947, 50.38395285816278, 62.62232844675863 
137.80750963953324, 4.517408424385547, 22.61953816868746, 100.43965744922302, 50.4984277867039, 62.62105644714987 
136.90871082708676, 4.752247793082497, 22.619443583415833, 99.72944668862499, 50.61557558630491, 62.619755884880156 
136.01089005480446, 4.991887356976733, 22.6193421781278, 99.01854229445536, 50.73538099434074, 62.61842702967838 
135.11403594305466, 5.236263330452696, 22.61923369328085, 98.30691699868153, 50.85782838932454, 62.617070159347016 
134.21813506992066, 5.485311035705851, 22.61911787061648, 97.59454272257187, 50.982901791244586, 62.615685559834326 
133.32317196751487, 5.738964931845867, 22.618994453597427, 96.88139054957655, 51.110584861811, 62.61427352530474 
132.42912911984033, 5.997158643225593, 22.61886318784499, 96.16743069750235, 51.24086090460477, 62.61283435820718 
131.53598696211887, 6.259824986948248, 22.618723821575706, 95.45263248994651, 51.37371286512141, 62.61136836934083 
130.64372388150306, 6.526895999508362, 22.618576106036837, 94.73696432695266, 51.50912333070133, 62.60987587791821 
129.7523162190907, 6.798302962524179, 22.618419795940117, 94.02039365485183, 51.64707453033839, 62.60835721162588 
128.86173827315957, 7.0739764275225205, 22.618254649893167, 93.30288693524777, 51.78754833435852, 62.60681270668158 
127.97196230354218, 7.353846239739128, 22.618080430828023, 92.58440961310626, 51.93052625395918, 62.6052427078886 
127.08295853706014, 7.63784156090068, 22.6178969064262, 91.86492608390483, 52.07598944060055, 62.60364756868652 
126.19469517393968, 7.9258908909570795, 22.61770384953969, 91.14439965979786, 52.2239186852392, 62.60202765119807 
125.30713839513234, 8.21792208873495, 22.617501038607518, 90.42279253475087, 52.37429441739391, 62.60038332627276 
124.42025237046562, 8.513862391486363, 22.617288258066974, 89.70006574859453, 52.5270967040339, 62.59871497352589 
123.53399926755178, 8.813638433308604, 22.617065298759346, 88.97617914994836, 52.6823052482784, 62.597022981373584 
122.64833926138539, 9.117176262413835, 22.616831958329335, 88.25109135796026, 52.83989938789694, 62.595307747063444 
121.76323054456303, 9.424401357229273, 22.61658804161786, 87.52475972280781, 52.999858093598505, 62.59356967670041 
120.87862933806224, 9.735238641311389, 22.616333361047367, 86.79714028490291, 53.162159967097985, 62.591809185268 
119.99448990251987, 10.049612497059188, 22.616067736999703, 86.06818773274085, 53.32678323894729, 62.59002669664439 
119.11076454995393, 10.36744677821443, 22.615790998185382, 85.33785535933113, 53.49370576611833, 62.58822264361345 
118.22740365587715, 10.688664821138204, 22.615502982004337, 84.60609501714534, 53.662905029324556, 62.58639746787046 
117.3443556717547, 11.013189454855505, 22.6152035348973, 83.87285707151503, 53.834358130066754, 62.58455162002215 
116.46156713776232, 11.340943009861563, 22.614892512687494, 83.1380903524093, 54.00804178738899, 62.5826855595813 
115.57898269580697, 11.671847325684984, 22.61456978091216, 82.40174210451949, 54.18393233432905, 62.58079975495533 
114.69654510277545, 12.005823757205336, 22.614235215143466, 81.66375793557516, 54.362005714047946, 62.57889468342898 
113.81419524398305, 12.342793179723746, 22.613888701298336, 80.92408176281326, 54.542237475621505, 62.57697083114086 
112.93187214679799, 12.682675992787479, 22.61353013593685, 80.18265575751806, 54.724602769477315, 62.57502869305374 
112.04951299442402, 13.025392122770423, 22.613159426548723, 79.43942028754849, 54.90907634245845, 62.57306877291845 
111.16705313982848, 13.370861024213584, 22.612776491827553, 78.69431385776373, 55.095632532495486, 62.57109158323104 
110.28442611980896, 13.719001679930683, 22.612381261932395, 77.9472730482574, 55.284245262866854, 62.569097645183625 
109.40156366919807, 14.069732599885738, 22.611973678736327, 77.19823245030516, 55.474888036027096, 62.567087488608294 
108.51839573521112, 14.422971818850993, 22.611553696061694, 76.44712459992884, 55.66753392698127, 62.56506165191398 
107.63485049194905, 14.778636892854617, 22.611121279901642, 75.69387990897611, 55.86215557618293, 62.56302068201661 
106.750854355074, 15.136644894429505, 22.61067640862768, 74.93842659361154, 56.058725181932076, 62.56096513426196 
105.86633199668293, 15.496912406675333, 22.61021907318291, 74.1806906001117, 56.25721449224815, 62.55889557234156 
104.98120636041064, 15.85935551614798, 22.609749277260764, 73.42059552785342, 56.45759479619216, 62.556812568201174 
