# MEX_intpoint_lon [deg], MEX_intpoint_lat [deg], MEX_intpoint_angle [deg], TGO_intpoint_lon [deg], TGO_intpoint_lat [deg], TGO_intpoint_angle [deg] 
-103.95231193903132, 20.42316966086437, 22.3070503318984, -148.8318464566166, 59.05528071501629, 62.529421380369946 
-104.86115706869056, 20.05624256307513, 22.307634096797063, -149.6260317239203, 58.83229945425106, 62.53163901971053 
-105.76831126714956, 19.690310159963335, 22.308207591782217, -150.41669232974354, 58.61082481768918, 62.53385092012356 
-106.67386532035727, 19.325461910325227, 22.308770654437016, -151.20394190629995, 58.390892189239295, 62.53605641188292 
-107.57790871287843, 18.961786613016358, 22.30932313477704, -151.9878904574378, 58.17253633006622, 62.5382548318529 
-108.48052959912842, 18.59937242329476, 22.309864895270003, -152.76864448378208, 57.955791396922606, 62.54044552367502 
-109.38181477606045, 18.238306868462583, 22.310395810840152, -153.54630710327936, 57.74069095946455, 62.54262783794714 
-110.28184965717911, 17.87867686276844, 22.310915768857992, -154.32097816729242, 57.52726801659936, 62.54480113239473 
-111.18071824776418, 17.520568721535252, 22.311424669114835, -155.0927543723939, 57.31555501191179, 62.54696477203449 
-112.07850312119594, 17.164068174480562, 22.311922423782633, -155.86172936800588, 57.10558384821265, 62.54911812933031 
-112.97528539628144, 16.80926037819808, 22.312408957359114, -156.62799386003132, 56.89738590125151, 62.55126058434135 
-113.87114471548898, 16.456229927771698, 22.312884206598092, -157.39163571062113, 56.690992032633275, 62.55339152486267 
-114.76615922400552, 16.105060867494654, 22.313348120425502, -158.15274003421814, 56.48643260197662, 62.55551034655782 
-115.6604055495398, 15.755836700668512, 22.313800659840876, -158.91138929001673, 56.2837374783503, 62.5576164530841 
-116.55395878280046, 15.408640398458463, 22.314241797804737, -159.66766337097326, 56.08293605102151, 62.55970925621001 
-117.44689245858606, 15.063554407782865, 22.314671519111943, -160.4216396895003, 55.88405723954926, 62.561788175925024 
-118.3392785374308, 14.720660658216993, 22.31508982025116, -161.17339325997273, 55.68712950325367, 62.56385264054209 
-119.23118738775666, 14.380040567891918, 22.31549670925085, -161.92299677817155, 55.49218085009087, 62.56590208679247 
-120.12268776848845, 14.041775048371708, 22.315892205511712, -162.67052069778697, 55.299238844961906, 62.567935959913264 
-121.01384681209649, 13.705944508493106, 22.316276339626192, -163.41603330409913, 55.10833061748244, 62.56995371372751 
-121.90473000803559, 13.372628857153664, 22.316649153184905, -164.15960078495024, 54.9194828692389, 62.571954810717195 
-122.79540118655733, 13.041907505035597, 22.317010698570652, -164.90128729911947, 54.73272188055566, 62.57393872208896 
-123.68592250287689, 12.713859365254502, 22.317361038740025, -165.64115504220692, 54.54807351679657, 62.5759049278329 
-124.57635442168282, 12.388562852922934, 22.317700246993077, -166.37926431013094, 54.365563234223096, 62.57785291677446 
-125.46675570198252, 12.066095883621141, 22.318028406731287, -167.1156735603373, 54.185216085430326, 62.57978218661915 
-126.3571833822825, 11.746535870768275, 22.3183456112042, -167.85043947081778, 54.007056724381336, 62.58169224399106 
-127.24769276610813, 11.429959721888878, 22.318651963245074, -168.58361699702954, 53.83110941105908, 62.58358260446451 
-128.138337407871, 11.116443833771694, 22.318947574995917, -169.31525942680565, 53.65739801575462, 62.58545279258936 
-129.02916909909925, 10.806064086518605, 22.3192325676223, -170.04541843334252, 53.485946023009326, 62.5873023419098 
-129.92023785504927, 10.498895836483934, 22.31950707101824, -170.77414412634613, 53.31677653522805, 62.589130794977436 
-130.81159190172252, 10.195013908105492, 22.31977122350167, -171.50148510141807, 53.14991227597964, 62.59093770335794 
-131.70327766331593, 9.89449258463092, 22.320025171500873, -172.22748848775677, 52.98537559300027, 62.59272262763218 
-132.59533975013753, 9.597405597744286, 22.32026906923225, -172.95219999424788, 52.82318846091467, 62.59448513739137 
-133.4878209470244, 9.303826116100188, 22.32050307836992, -173.6756639540146, 52.663372483689464, 62.59622481122715 
-134.38076220230258, 9.013826732774096, 22.32072736770758, -174.3979233674954, 52.505948896832436, 62.59794123671586 
-135.27420261733346, 8.72747945163986, 22.32094211281301, -175.1190199441149, 52.350938569350966, 62.59963401039795 
-136.16817943669324, 8.44485567268722, 22.321147495675827, -175.8389941426102, 52.198362005482245, 62.60130273775243 
-137.06272803903678, 8.166026176294313, 22.32134370434878, -176.5578852100723, 52.04823934620748, 62.6029470331665 
-137.95788192869833, 7.891061106472145, 22.321530932583233, -177.27573121976087, 51.90059037056197, 62.60456651990044 
-138.8536727280866, 7.620029953100064, 22.3217093794592, -177.99256910774776, 51.755434496752, 62.60616083004838 
-139.7501301709316, 7.353001533173895, 22.321879249010433, -178.70843470844133, 51.612790783089864, 62.60772960449475 
-140.64728209644508, 7.090043971089964, 22.3220407498452, -179.42336278904375, 51.47267792875703, 62.60927249286664 
-141.5451544444566, 6.831224677991149, 22.322194094763034, 179.86261291701095, 51.33511427440586, 62.610789153482614 
-142.4437712515905, 6.576610330202976, 22.32233950036812, 179.14945967759078, 51.2001178026095, 62.61227925329777 
-143.3431546485485, 6.32626684679027, 22.322477186679816, 178.43714573032705, 51.06770613816922, 62.613742467845434 
-144.24332485856573, 6.080259366267182, 22.32260737674074, 177.7256402519593, 50.93789654828844, 62.615178481175825 
-145.14430019710682, 5.8386522224957975, 22.322730296223007, 177.01491332852424, 50.81070594262195, 62.61658698579168 
-146.04609707287045, 5.601508919810957, 22.322846173033206, 176.30493592634707, 50.68615087320901, 62.617967682581195 
-146.94872999016997, 5.368892107410992, 22.322955236916382, 175.5956798637993, 50.56424753429823, 62.619320280748404 
-147.8522115527572, 5.14086355305697, 22.32305771905991, 174.8871177837854, 50.44501176207236, 62.62064449774131 
-148.7565524691576, 4.917484116124733, 22.32315385169749, 174.17922312692428, 50.32845903428027, 62.62194005917797 
-149.66176155958053, 4.6988137200569176, 22.32324386771388, 173.47197010539205, 50.21460446978379, 62.623206698770666 
-150.5678457644711, 4.484911324263895, 22.323328000250964, 172.76533367739373, 50.103462828026366, 62.62444415824839 
-151.47481015476424, 4.275834895525248, 22.323406482315583, 172.05928952223454, 49.995048508430415, 62.625652187278035 
-152.38265794390304, 4.071641378945084, 22.323479546389674, 171.3538140159596, 49.88937554973001, 62.62683054338429 
-153.29139050167782, 3.8723866685169765, 22.32354742404318, 170.648884207536, 49.78645762924542, 62.62797899186841 
-154.2010073699415, 3.6781255773560346, 22.32361034555042, 169.94447779554864, 49.68630806210553, 62.62909730572666 
-155.1115062802527, 3.4889118076575696, 22.32366853951016, 169.24057310538518, 49.58893980042449, 62.63018526556748 
-156.02288317349456, 3.304797920443693, 22.323722232470168, 168.53714906688484, 49.49436543243789, 62.63124265952895 
-156.9351322215124, 3.125835305160709, 22.323771648556466, 167.83418519242764, 49.402597181604584, 62.632269283195676 
-157.84824585081049, 2.9520741491917253, 22.323817009107998, 167.13166155544138, 49.31364690567927, 62.63326493951597 
-158.76221476834212, 2.7835634073503934, 22.32385853231714, 166.4295587693046, 49.22752609576116, 62.6342294387192 
-159.67702798942216, 2.620350771422663, 22.32389643287639, 165.7278579666246, 49.14424587532378, 62.63516259823347 
-160.5926728677871, 2.462482639824735, 22.323930921631913, 165.0265407788707, 49.063816999230774, 62.63606424260414 
-161.50913512782, 2.3100040874461736, 22.323962205244246, 164.32558931634364, 48.986249852742404, 62.63693420341319 
-162.42639889895332, 2.162958835747714, 22.32399048585672, 163.62498614846294, 48.91155445051723, 62.637772319199264 
-163.34444675225583, 2.0213892231839194, 22.324015960771845, 162.92471428435397, 48.83974043561342, 62.638578435379515 
-164.263259739203, 1.8853361760210352, 22.32403882213649, 162.2247571537185, 48.7708170784938, 62.6393524041723 
-165.18281743262392, 1.7548391796204457, 22.324059256635675, 161.5250985879725, 48.70479327603858, 62.64009408452179 
-166.1030979698116, 1.6299362502579962, 22.324077445195996, 160.8257228016353, 48.6416775505698, 62.64080334202409 
-167.02407809777455, 1.5106639075489228, 22.324093562698653, 160.12661437395528, 48.58147804889103, 62.64148004885543 
-167.94573322060316, 1.3970571475476365, 22.324107777702636, 159.42775823075803, 48.52420254134588, 62.64212408370235 
-168.86803744891478, 1.2891494165906294, 22.324120252178425, 158.7291396265029, 48.4698584208987, 62.64273533169417 
-169.79096365133594, 1.1869725859495799, 22.324131141252455, 158.03074412653444, 48.418452702240714, 62.6433136843375 
-170.71448350797166, 1.0905569273605649, 22.324140592962955, 157.3325575895168, 48.36999202092448, 62.64385903945398 
-171.63856756580597, 0.9999310894933483, 22.324148748027003, 156.6345661500376, 48.324482632529744, 62.64437130111978 
-172.56318529596928, 0.9151220754232474, 22.324155739619734, 155.9367562013705, 48.28193041186332, 62.64485037960859 
-173.48830515280244, 0.8361552211654729, 22.32416169316538, 155.2391143783842, 48.24234085219552, 62.64529619133712 
-174.41389463464012, 0.7630541753300423, 22.324166726140856, 154.54162754058694, 48.20571906453561, 62.64570865881363 
-175.3399203462291, 0.6958408799523037, 22.32417094789194, 153.84428275529643, 48.17206977694855, 62.64608771058997 
-176.26634806269178, 0.6345355525516011, 22.324174459462384, 153.1470672809236, 48.141397333915016, 62.64643328121621 
-177.19314279493807, 0.5791566694674921, 22.324177353436117, 152.44996855036123, 48.113705695736826, 62.64674531119925 
-178.1202688564237, 0.5297209505196857, 22.324179713792752, 151.75297415446684, 48.08899843798923, 62.647023746964315 
-179.04768993114757, 0.4862433450344675, 22.324181615776713, 151.05607182563068, 48.06727875102202, 62.647268540820356 
-179.9753691427753, 0.4487370192768537, 22.32418312577995, 150.35924942141926, 48.04854943951079, 62.647479650928645 
179.09673087522762, 0.4172133453237168, 22.324184301238574, 149.66249490828557, 48.03281292205952, 62.64765704127537 
178.16864790857477, 0.3916818914094951, 22.32418519054348, 148.96579634533657, 48.02007123085579, 62.64780068164764 
177.2404200903746, 0.3721504137718015, 22.324185832965018, 148.26914186814955, 48.010326011379675, 62.64791054761334 
176.3120858287111, 0.3586248500202003, 22.324186258592, 147.5725196726286, 48.003578522166826, 62.64798662050479 
175.38368373371983, 0.35110931404698165, 22.324186488284848, 146.87591799889248, 47.99982963462688, 62.64802888740619 
174.4552525442927, 0.3496060924946378, 22.3241865336432, 146.17932511518558, 47.99907983291721, 62.64803734114498 
173.52683105454526, 0.354115642790046, 22.324186396987876, 145.4827293018037, 48.001329213872815, 62.64801198028682 
172.59845804018235, 0.3646365927509807, 22.324186071357317, 144.78611883502543, 48.006577486992235, 62.64795280913481 
171.67017218489767, 0.3811657417662163, 22.324185540518314, 144.08948197104252, 48.014823974479675, 62.647859837732334 
170.7420120069428, 0.4036980635456764, 22.3241847789913, 143.39280692987867, 48.02606761134326, 62.64773308186976 
169.8140157860009, 0.4322267104328568, 22.324183752089965, 142.69608187929046, 48.040306945548934, 62.647572563095174 
168.88622149049888, 0.4667430192671357, 22.32418241597515, 141.99929491864017, 48.05754013822986, 62.647378308728804 
167.95866670548907, 0.5072365187792109, 22.324180717723063, 141.30243406273362, 48.07776496395049, 62.64715035188125 
167.0313885612309, 0.5536949384986353, 22.324178595407627, 140.605487225613, 48.10097881102462, 62.64688873147558 
166.10442366259844, 0.6061042191480575, 22.32417597819685, 139.9084422042968, 48.12717868188664, 62.646593492272984 
165.17780801943712, 0.6644485244947522, 22.324172786463212, 139.21128666245804, 48.156361193514755, 62.646264684902256 
164.25157697798895, 0.72871025462603, 22.324168931907717, 138.51400811403093, 48.188522577905005, 62.64590236589278 
163.32576515350092, 0.7988700606111577, 22.324164317697644, 137.81659390673767, 48.223658682594696, 62.64550659771104 
162.4004063641266, 0.8749068605088506, 22.324158838617656, 137.11903120552526, 48.2617649712338, 62.64507744880068 
161.47553356622646, 0.9567978566758009, 22.324152381234253, 136.42130697590312, 48.30283652420247, 62.6446149936258 
160.55117879116483, 1.044518554328467, 22.324144824073066, 135.72340796717108, 48.34686803927284, 62.644119312717656 
159.6273730836984, 1.1380427813070961, 22.324136037809097, 135.02532069552797, 48.39385383231333, 62.64359049272451 
158.70414644204243, 1.2373427089881446, 22.324125885469353, 134.32703142704963, 48.44378783803284, 62.64302862646438 
157.78152775969573, 1.3423888742885792, 22.32411422264783, 133.6285261605263, 48.496663610763015, 62.642433812981096 
156.85954476909825, 1.4531502027029506, 22.32410089773236, 132.9297906101472, 48.55247432527567, 62.641806157602794 
155.9382239871888, 1.5695940323120385, 22.324085752143247, 132.23081018802105, 48.61121277763298, 62.641145772003505 
155.01759066292254, 1.691686138699837, 22.324068620583137, 131.5315699865208, 48.67287138606756, 62.64045277426701 
154.09766872680163, 1.819390760713852, 22.324049331297974, 130.83205476043906, 48.737442191889464, 62.63972728895337 
153.17848074246467, 1.9526706270022174, 22.324027706348634, 130.13224890894224, 48.80491686041692, 62.638969447167504 
152.26004786037385, 2.0914869832599656, 22.324003561892805, 129.43213645730924, 48.87528668192773, 62.638179386630185 
151.3423897736308, 2.235799620115558, 22.323976708476863, 128.7317010384406, 48.948542572627616, 62.63735725175083 
150.42552467594598, 2.385566901588273, 22.323946951337316, 128.03092587412405, 49.024675075632096, 62.63650319370217 
149.50946922177872, 2.54074579404634, 22.323914090711302, 127.32979375604046, 49.10367436195811, 62.635617370496526 
148.59423848865805, 2.7012918955954963, 22.32387792215595, 126.62828702649495, 49.18553023152132, 62.634699947063694 
147.67984594168817, 2.8671594658275295, 22.323838236875964, 125.92638755885605, 49.270232114135176, 62.63375109533 
146.76630340023593, 3.038301455858541, 22.32379482205913, 125.22407673768653, 49.35776907050738, 62.63277099429856 
145.85362100678992, 3.2146695385871196, 22.323747461219277, 124.52133543854684, 49.44812979322931, 62.6317598301304 
144.94180719797728, 3.3962141391030225, 22.323695934546183, 123.81814400745336, 49.541302607753806, 62.63071779622638 
144.03086867771526, 3.5828844651778757, 22.323640019262044, 123.11448223997134, 49.63727547335652, 62.62964509330967 
143.12081039247224, 3.7746285377703197, 22.323579489983956, 122.41032935992268, 49.736035984076004, 62.628541929508586 
142.2116355086049, 3.971393221479147, 22.323514119092014, 121.70566399768663, 49.83757136962714, 62.62740852043941 
141.30334539173523, 4.173124254879275, 22.32344367710243, 121.00046416807184, 49.94186849628285, 62.626245089289554 
140.39593958812532, 4.379766280676867, 22.32336793304536, 120.29470724773603, 50.04891386771832, 62.625051866899966 
139.48941580800448, 4.591262875621517, 22.323286654846655, 119.58836995212991, 50.1586936258123, 62.62382909184747 
138.58376991079837, 4.807556580115079, 22.32319960971338, 118.88142831193912, 50.27119355139937, 62.62257701052621 
137.6789958922076, 5.028588927458596, 22.323106564522277, 118.17385764899866, 50.38639906496706, 62.621295877228285 
136.77508587307892, 5.254300472680721, 22.323007286210878, 117.46563255165199, 50.50429522729169, 62.619985954223274 
135.8720300900098, 5.484630820893105, 22.322901542170612, 116.75672684952615, 50.62486674000621, 62.61864751183643 
134.96981688762537, 5.719518655120171, 22.322789100641494, 116.04711358769315, 50.74809794609333, 62.61728082852535 
134.06843271246393, 5.95890176355311, 22.322669731107766, 115.3367650001858, 50.873972830296985, 62.61588619095493 
133.16786210840573, 6.2027170661799245, 22.32254320469411, 114.62565248283647, 51.0024750194449, 62.61446389407017 
132.26808771357906, 6.450900640745931, 22.322409294561723, 113.9137465654033, 51.13358778267476, 62.613014241167065 
131.36909025867627, 6.703387748001043, 22.322267776303907, 113.2010168829498, 51.26729403155611, 62.61153754396098 
130.47084856661175, 6.9601128561929775, 22.322118428340584, 112.48743214643959, 51.4035763201004, 62.61003412265218 
129.57333955345467, 7.221009664767415, 22.32196103231111, 111.7729601125084, 51.54241684465029, 62.608504305989 
128.6765382305677, 7.486011127238977, 22.321795373465118, 111.05756755237249, 51.68379744364012, 62.60694843132761 
127.7804177078857, 7.755049473198747, 22.32162124105058, 110.34122021983174, 51.82769959721848, 62.6053668446884 
126.88494919826744, 8.028056229426891, 22.32143842869882, 109.62388281832321, 51.97410442672356, 62.60375990080952 
125.99010202285493, 8.304962240081018, 22.321246734805804, 108.90551896697943, 52.12299269400197, 62.60212796319604 
125.09584361737798, 8.58569768593313, 22.321045962909288, 108.18609116564394, 52.274344800560904, 62.60047140416544 
124.2021395393404, 8.870192102630707, 22.320835922061292, 107.46556075879373, 52.42814078654355, 62.59879060488939 
123.30895347602944, 9.158374397959168, 22.32061642719542, 106.74388789831697, 52.58436032951693, 62.597085955430735 
122.41624725329025, 9.450172868085735, 22.320387299488527, 106.02103150509194, 52.74298274306127, 62.59535785477622 
121.52398084501087, 9.745515212766353, 22.32014836671625, 105.29694922931041, 52.903986975149216, 62.5936067108645 
120.63211238326527, 10.04432854949997, 22.319899463601953, 104.57159740948681, 53.067351606303134, 62.59183294060937 
119.74059816906603, 10.346539426616026, 22.319640432158582, 103.84493103009196, 53.23305484751781, 62.5900369699178 
118.84939268368069, 10.652073835283526, 22.31937112202299, 103.1169036777472, 53.40107453793588, 62.58821923370284 
117.95844860046958, 10.960857220431683, 22.319091390782322, 102.38746749591284, 53.57138814226226, 62.58638017589091 
117.06771679720723, 11.272814490574138, 22.318801104291957, 101.65657313800122, 53.74397274790372, 62.5845202494239 
116.17714636885258, 11.5878700265309, 22.318500136984618, 100.92416971884259, 53.91880506181891, 62.58263991625514 
115.2866846407379, 11.905947689043389, 22.318188372170244, 100.19020476442871, 54.09586140706341, 62.58073964733956 
114.39627718215043, 12.226970825280477, 22.317865702326188, 99.454624159856, 54.275117719014204, 62.578819922617875 
113.50586782028564, 12.550862274234444, 22.317532029377308, 98.71737209538736, 54.45654954125663, 62.576881230994445 
112.61539865455511, 12.87754437100808, 22.31718726496574, 97.978391010548, 54.64013202111653, 62.57492407030879 
111.72481007123754, 13.206938949995191, 22.316831330709764, 97.23762153616786, 54.82583990481954, 62.572948947300645 
110.83404075846582, 13.538967346959042, 22.3164641584515, 96.49500243427957, 55.013647532258425, 62.570956377568315 
109.94302772154903, 13.873550400014215, 22.31608569049322, 95.75047053577737, 55.20352883134853, 62.56894688552037 
109.05170629863308, 14.210608449519329, 22.315695879821668, 95.00396067573936, 55.395457311950715, 62.566921004320186 
108.16001017670906, 14.550061336889534, 22.315294690320354, 94.25540562631096, 55.58940605933983, 62.56487927582397 
107.2678714079852, 14.891828402338966, 22.3148820969693, 93.50473602704515, 55.78534772719605, 62.5628222505112 
106.37522042664239, 15.235828481565212, 22.31445808603218, 92.75188031259005, 55.98325453009507, 62.5607504874082 
105.48198606600153, 15.581979901388987, 22.314022655230314, 91.9967646376116, 56.18309823547209, 62.55866455400427 
104.5880955761346, 15.930200474364076, 22.313575813903537, 91.23931279883504, 56.38485015503341, 62.5565650261605 
