# MEX_intpoint_lon [deg], MEX_intpoint_lat [deg], MEX_intpoint_angle [deg], TGO_intpoint_lon [deg], TGO_intpoint_lat [deg], TGO_intpoint_angle [deg] 
-103.76057125700618, 20.37761166830973, 22.195878632249983, -142.94872429916603, 58.885335026376545, 62.53175391116116 
-104.6727218433155, 20.016584356970615, 22.19644888434975, -143.73355402412622, 58.65739916747319, 62.534028354652214 
-105.58318956768923, 19.656520003515972, 22.19700924032437, -144.5149398343895, 58.431025766729064, 62.53629676024723 
-106.49206276265929, 19.297507347050914, 22.197559541306664, -145.29299533082684, 58.20624996405389, 62.53855844136799 
-107.39942853076988, 18.93963447452433, 22.198099640408653, -146.067830394062, 57.98310629081021, 62.54081271838046 
-108.30537271420941, 18.582988835708726, 22.19862940274104, -146.83955131730232, 57.76162868797097, 62.543058918785604 
-109.20997986593574, 18.227657257538528, 22.19914870541833, -147.60826093397702, 57.541850523236924, 62.54529637740209 
-110.1133332221743, 17.873725957768922, 22.19965743754946, -148.37405874037498, 57.32380460716528, 62.54752443654086 
-111.01551467617747, 17.521280557918953, 22.200155500214073, -149.1370410134716, 57.107523208358465, 62.54974244617156 
-111.91660475313981, 17.170406095465417, 22.200642806424494, -149.89730092412967, 56.893038067759285, 62.55194976408101 
-112.81668258617282, 16.82118703525561, 22.201119281073467, -150.65492864585576, 56.68038041209628, 62.554145756023225 
-113.71582589324895, 16.473707280109544, 22.20158486086782, -151.4100114592876, 56.46958096652123, 62.556329795861565 
-114.61411095503216, 16.12805018058374, 22.202039494248115, -152.16263385258497, 56.26066996647833, 62.558501265702674 
-115.51161259351996, 15.78429854387066, 22.20248314129449, -152.91287761789, 56.053677168842384, 62.56065955602242 
-116.40840415142759, 15.442534641809884, 22.202915773618773, -153.66082194401824, 55.848631862362225, 62.56280406578372 
-117.3045574722532, 15.10284021798825, 22.20333737424317, -154.4065435055377, 55.64556287744284, 62.5649342025464 
-118.20014288096795, 14.765296493908684, 22.203747937465522, -155.1501165483857, 55.44449859529868, 62.567049382569216 
-119.09522916528296, 14.42998417420805, 22.20414746871152, -155.8916129721709, 55.245466956508686, 62.56914903090398 
-119.98988355744974, 14.096983450906993, 22.204535984374047, -156.63110240929973, 55.048495469002326, 62.57123258148181 
-120.88417171655855, 13.766374006675413, 22.204913511639756, -157.3686523010649, 54.85361121550413, 62.57329947719182 
-121.77815771130355, 13.438235017099315, 22.205280088303443, -158.1043279708248, 54.660840860463274, 62.57534916995212 
-122.67190400319079, 13.112645151936125, 22.205635762570044, -158.8381926944012, 54.47021065649329, 62.57738112077344 
-123.56547143016972, 12.789682575347095, 22.205980592844973, -159.57030776781514, 54.281746450345736, 62.57939479981502 
-124.45891919067526, 12.469424945096891, 22.206314647512787, -160.30073257247864, 54.095473688440705, 62.58138968643377 
-125.35230482807226, 12.151949410712202, 22.206638004704693, -161.0295246379526, 53.91141742197584, 62.583365269225695 
-126.2456842154998, 11.837332610592568, 22.206950752055015, -161.7567397023793, 53.729602311634665, 62.58532104606066 
-127.13911154111769, 11.525650668068256, 22.207252986447237, -162.48243177069247, 53.55005263191374, 62.58725652411021 
-128.03263929376237, 11.216979186401714, 22.207544813749617, -163.20665317070333, 53.372792275088024, 62.589171219868405 
-128.92631824902463, 10.911393242730622, 22.207826348541094, -163.92945460715802, 53.19784475483184, 62.59106465916648 
-129.820197455765, 10.608967380952345, 22.208097713827605, -164.6508852138569, 53.02523320951328, 62.5929363771806 
-130.71432422308897, 10.309775603551168, 22.208359040749247, -165.3709926039238, 52.854980405178225, 62.59478591843373 
-131.60874410780627, 10.013891362371643, 22.208610468278895, -166.08982291830745, 52.68710873823975, 62.596612836791174 
-132.5035009024044, 9.72138754834287, 22.20885214291224, -166.80742087259682, 52.521640237888256, 62.59841669545016 
-133.3986366235691, 9.432336480160645, 22.209084218350196, -167.52382980222572, 52.35859656823661, 62.600197066923926 
-134.29419150128868, 9.146809891936075, 22.209306855173665, -168.23909170614095, 52.19799903021431, 62.601953533019945 
-135.19020396858318, 8.864878919821281, 22.209520220511326, -168.9532472890042, 52.039868563223976, 62.60368568481288 
-136.08671065190123, 8.586614087624685, 22.209724487700825, -169.6663360019952, 51.88422574657293, 62.60539312261252 
-136.98374636223159, 8.312085291430535, 22.209919835943843, -170.37839608228043, 51.73109080069219, 62.607075455926505 
-137.88134408697903, 8.04136178323916, 22.210106449955497, -171.0894645912094, 51.58048358815489, 62.60873230341835 
-138.77953498265634, 7.774512153646587, 22.210284519608447, -171.79957745129778, 51.43242361450501, 62.610363292861 
-139.6783483684471, 7.511604313584539, 22.2104542395724, -172.5087694820534, 51.286930028908024, 62.61196806108588 
-140.5778117206954, 7.25270547514343, 22.210615808949246, -173.2170744347001, 51.14402162463336, 62.6135462539279 
-141.477950668381, 6.9978821315038315, 22.210769430904453, -173.9245250258508, 51.00371683937937, 62.6150975261666 
-142.37878898963945, 6.7472000360035205, 22.210915312295214, -174.63115297017941, 50.86603375545024, 62.616621541463374 
-143.28034860938865, 6.50072418036979, 22.211053663295726, -175.33698901213918, 50.73099009979442, 62.618117972295394 
-144.18264959812316, 6.258518772148823, 22.21118469702025, -176.04206295677307, 50.59860324391376, 62.61958649988633 
-145.08571017193935, 6.020647211366242, 22.21130862914433, -176.74640369965934, 50.46889020365195, 62.62102681413373 
-145.9895466938539, 5.787172066455162, 22.211425677524716, -177.45003925603393, 50.341867638870994, 62.62243861353406 
-146.8941736764789, 5.558155049490278, 22.211536061818503, -178.15299678912976, 50.21755185302375, 62.623821605104695 
-147.7996037861156, 5.333656990768931, 22.211640003101987, -178.85530263777065, 50.09595879263065, 62.62517550430393 
-148.70584784832909, 5.1137378127820465, 22.21173772348973, -179.55698234325644, 49.97710404666794, 62.62650003494876 
-149.61291485506408, 4.898456503620299, 22.21182944575432, 179.74193932442586, 49.8610028458754, 62.627794929130545 
-150.52081197336207, 4.687871089862721, 22.211915392947375, 179.04143834103164, 49.7476700619901, 62.62905992712957 
-151.4295445557365, 4.4820386089973, 22.2119957880223, 178.34149140309705, 49.637120206913686, 62.63029477732753 
-152.33911615226228, 4.281015081424938, 22.212070853459146, 177.6420759035558, 49.529367431819466, 62.63149923611931 
-153.24952852443212, 4.084855482100205, 22.212140810892354, 176.94316990790477, 49.424425526206086, 62.63267306782365 
-154.1607816608306, 3.8936137118641696, 22.212205880741536, 176.2447521308915, 49.32230791690401, 62.63381604459281 
-155.07287379467223, 3.7073425685262573, 22.212266281846073, 175.54680191369556, 49.223027667040775, 62.63492794632228 
-155.98580142324803, 3.5260937177538785, 22.212322231103858, 174.8492992015796, 49.126597474970964, 62.636008560559674 
-156.89955932931937, 3.349917663830061, 22.212373943114624, 174.1522245219845, 49.033029673176735, 62.63705768241367 
-157.8141406044953, 3.1788637203406456, 22.212421629828516, 173.4555589630462, 48.94233622714403, 62.63807511446337 
-158.729536674624, 3.0129799808540225, 22.21246550020018, 172.7592841525114, 48.85452873422019, 62.63906066666772 
-159.64573732722468, 2.8523132896573524, 22.212505759848902, 172.06338223703057, 48.76961842245782, 62.640014156275605 
-160.56273074098107, 2.696909212614288, 22.212542610725276, 171.36783586180795, 48.68761614944985, 62.64093540773659 
-161.48050351731158, 2.5468120082099373, 22.212576250784792, 170.6726281505896, 48.6085324011608, 62.64182425261304 
-162.39904071402697, 2.402064598849431, 22.21260687366881, 169.97774268596947, 48.532377290758596, 62.642680529492964 
-163.31832588107906, 2.262708542476809, 22.21263466839329, 169.28316348999667, 48.45916055745137, 62.64350408390429 
-164.23834109839873, 2.1287840045812785, 22.212659819045786, 168.58887500506586, 48.388891565333694, 62.644294768231184 
-165.15906701581497, 2.000329730657731, 22.212682504491035, 167.8948620750753, 48.32157930224618, 62.64505244163149 
-166.08048289503992, 1.8773830191884116, 22.212702898085478, 167.2011099268355, 48.257232378652326, 62.645776969956486 
-167.0025666536993, 1.7599796952119438, 22.212721167401245, 166.50760415171436, 48.195859026536546, 62.64646822567267 
-167.9252949113799, 1.6481540845455143, 22.21273747395983, 165.81433068750385, 48.13746709832676, 62.647126087785786 
-168.8486430376593, 1.541938988724992, 22.21275197297589, 165.12127580049415, 48.08206406584512, 62.64775044176732 
-169.77258520207693, 1.441365660726687, 22.212764813111455, 164.4284260677422, 48.029657019290084, 62.648341179483616 
-170.69709442599824, 1.3464637815331988, 22.212776136240894, 163.73576835952144, 47.98025266625303, 62.648898199127586 
-171.6221426363167, 1.2572614376039983, 22.21278607722703, 163.0432898219404, 47.93385733077208, 62.64942140515371 
-172.54770072093282, 1.1737850993100263, 22.21279476370848, 162.35097785971868, 47.89047695242631, 62.64991070821557 
-173.47373858594196, 1.0960596003889933, 22.212802315898802, 161.658820119108, 47.85011708547273, 62.65036602510695 
-174.40022521445675, 1.0241081184764302, 22.212808846397465, 160.96680447094775, 47.81278289802837, 62.65078727870589 
-175.32712872698357, 0.9579521567645217, 22.212814460013018, 160.2749189938445, 47.77847917130016, 62.651174397922524 
-176.254416443267, 0.8976115268385915, 22.212819253598678, 159.5831519574644, 47.74721029886437, 62.65152731765014 
-177.18205494550995, 0.8431043327377532, 22.212823315900515, 158.89149180592887, 47.71898028599783, 62.65184597871993 
-178.11001014287243, 0.7944469562836078, 22.21282672741848, 158.19992714130404, 47.69379274906258, 62.652130327859474 
-179.0382473371463, 0.7516540437173375, 22.212829560280447, 157.50844670717373, 47.6716509149457, 62.65238031765503 
-179.96673128949902, 0.7147384936821908, 22.2128318781294, 156.81703937228724, 47.65255762055587, 62.65259590651774 
179.10457371182466, 0.6837114465849053, 22.212833736024024, 156.12569411427285, 47.636515312377824, 62.6527770586536 
178.17570378295866, 0.6585822753657263, 22.21283518035267, 155.43440000340797, 47.62352604608606, 62.65292374403763 
177.24669537514788, 0.6393585777029334, 22.212836248760926, 154.74314618643726, 47.613591486218674, 62.65303593839209 
176.31758520487756, 0.626046169673804, 22.21283697009288, 154.05192187043048, 47.60671290591225, 62.653113623168565 
175.38841018352477, 0.6186490808899141, 22.21283736434613, 153.36071630667112, 47.60289118669845, 62.65315678553463 
174.45920734665742, 0.6171695511205012, 22.212837442640556, 152.66951877456793, 47.602126818362926, 62.6531654183641 
173.53001378310822, 0.6216080284134332, 22.212837207200998, 151.97831856558076, 47.60441989886673, 62.653139520232024 
172.6008665639523, 0.6319631687191332, 22.212836651353815, 151.2871049671526, 47.60977013433063, 62.653079095413595 
171.67180267151684, 0.6482318370185505, 22.212835759537207, 150.59586724663953, 47.61817683908224, 62.65298415388716 
170.74285892855156, 0.6704091099518964, 22.212834507325578, 149.9045946352305, 47.62963893576586, 62.652854711341696 
169.81407192768813, 0.6984882799407851, 22.21283286146761, 149.21327631184832, 47.64415495551487, 62.652690789188355 
168.88547796131496, 0.732460860792082, 22.212830779938113, 148.52190138702414, 47.661723038186004, 62.65249241457606 
167.9571129519928, 0.7723165947676504, 22.21282821200368, 147.83045888673627, 47.6823409326551, 62.65225962041121 
167.02901238353357, 0.8180434611000411, 22.21282509830188, 147.13893773620558, 47.706005997173435, 62.65199244538181 
166.10121123286308, 0.8696276859303111, 22.212821370934016, 146.44732674363843, 47.73271519978378, 62.65169093398516 
165.1737439027842, 0.9270537536399579, 22.21281695357125, 145.75561458390814, 47.76246511879507, 62.6513551365599 
164.24664415575367, 0.9903044195455694, 22.21281176157401, 145.06378978216694, 47.79525194331437, 62.65098510932162 
163.31994504878256, 1.0593607239207872, 22.21280570212446, 144.3718406973781, 47.831071473834825, 62.6505809144027 
162.39367886956418, 1.134202007306862, 22.212798674371975, 143.67975550575972, 47.86991912287798, 62.650142619895576 
161.46787707392988, 1.2148059270697633, 22.212790569591192, 142.98752218412994, 47.9117899156886, 62.64967029989978 
160.5425702247276, 1.3011484751585354, 22.212781271352736, 142.29512849314457, 47.95667849098038, 62.649164034572664 
159.61778793221177, 1.3932039970167507, 22.212770655706127, 141.60256196041533, 48.00457910173018, 62.64862391018335 
158.69355879602878, 1.4909452115960131, 22.21275859137482, 140.90980986350002, 48.05548561601877, 62.64805001917024 
157.76991034887456, 1.5943432324179936, 22.212744939962917, 140.21685921275215, 48.1093915179156, 62.64744246020167 
156.8468690018959, 1.7033675896291134, 22.212729556173517, 139.5236967340199, 48.16628990840509, 62.646801338239655 
155.92445999190014, 1.8179862529898139, 22.212712288038237, 138.8303088511816, 48.22617350635178, 62.6461267646066 
155.00270733043126, 1.9381656557384488, 22.21269297715761, 138.13668166850664, 48.28903464950134, 62.64541885705483 
154.0816337547637, 2.063870719268258, 22.21267145895216, 137.4428009528283, 48.35486529551465, 62.64467773983892 
153.1612606808591, 2.1950648785542213, 22.212647562923685, 136.748652115516, 48.42365702303142, 62.64390354379031 
152.24160815832346, 2.3317101082656455, 22.21262111292651, 136.05422019423287, 48.49540103276046, 62.643096406394534 
151.32269482739628, 2.4737669494990473, 22.212591927448234, 135.3594898344646, 48.57008814859263, 62.642256471870446 
150.4045378779963, 2.6211945370654166, 22.212559819899756, 134.6644452708047, 48.64770881873306, 62.64138389125158 
149.4871530108415, 2.773950627265159, 22.212524598913998, 133.9690703079807, 48.72825311684884, 62.64047882246933 
148.57055440065514, 2.931991626083942, 22.212486068653142, 133.27334830160507, 48.81171074322794, 62.63954143043776 
147.65475466146276, 3.0952726177422822, 22.212444029123805, 132.57726213863415, 48.89807102594547, 62.63857188713996 
146.73976481397912, 3.2637473935321433, 22.21239827649978, 131.88079421751755, 48.987322922032675, 62.637570371715555 
145.82559425507785, 3.4373684808738463, 22.21234860345204, 131.18392642801936, 49.07945501864444, 62.63653707054951 
144.91225072933122, 3.6160871725272496, 22.212294799485306, 130.4866401306924, 49.174455534220314, 62.6354721773615 
143.99974030260142, 3.7998535558918767, 22.21223665128105, 129.788916135985, 49.27231231963451, 62.63437589329631 
143.0880673376597, 3.9886165423313376, 22.212173943046178, 129.09073468296023, 49.37301285932957, 62.63324842701435 
142.17723447180498, 4.182323896458742, 22.212106456867186, 128.39207541760445, 49.476544272428704, 62.63208999478279 
141.2672425964482, 4.380922265320664, 22.212033973069154, 127.69291737070357, 49.58289331382125, 62.63090082056636 
140.3580908386254, 4.584357207418858, 22.211956270579112, 126.99323893526243, 49.69204637521573, 62.62968113611821 
139.44977654439737, 4.792573221510109, 22.21187312729348, 126.29301784344237, 49.803989486154784, 62.62843118107043 
138.54229526409023, 5.005513775126497, 22.21178432044878, 125.59223114299121, 49.91870831498583, 62.62715120302351 
137.63564073932935, 5.2231213327598205, 22.2116896269955, 124.8908551731381, 50.036188169781525, 62.625841457635524 
136.72980489181356, 5.445337383655859, 22.211588823974232, 124.1888655399248, 50.15641399920332, 62.62450220870984 
135.82477781377608, 5.672102469166111, 22.211481688893944, 123.48623709094342, 50.27937039330191, 62.6231337282816 
134.92054776007558, 5.903356209606417, 22.21136800011162, 122.78294388944988, 50.40504158424725, 62.62173629670281 
134.01710114185815, 6.139037330574238, 22.21124753721294, 122.07895918781986, 50.53341144698161, 62.62031020272548 
133.11442252173106, 6.3790836886781195, 22.211120081393325, 121.37425540031394, 50.66446349978794, 62.61885574358274 
132.21249461038582, 6.623432296635416, 22.21098541583906, 120.66880407511545, 50.79818090476627, 62.61737322506815 
131.31129826460958, 6.872019347696108, 22.210843326107813, 119.96257586560459, 50.93454646821018, 62.61586296161176 
130.41081248662078, 7.124780239353269, 22.210693600508097, 119.25554050082948, 51.073542640875445, 62.61432527635433 
129.51101442466762, 7.381649596302434, 22.210536030477236, 118.54766675513359, 51.21515151813224, 62.612760501218084 
128.61187937482504, 7.642561292614935, 22.21037041095723, 117.83892241689674, 51.35935483999254, 62.61116897697452 
127.71338078392948, 7.907448473092016, 22.210196540768088, 117.12927425634606, 51.506133991003615, 62.6095510533088 
126.81549025358858, 8.176243573769131, 22.210014222978195, 116.41868799238928, 51.65546999999821, 62.607907088880616 
125.91817754520599, 8.44887834154205, 22.209823265270987, 115.70712825842274, 51.807343539692205, 62.6062374513812 
125.02141058596261, 8.725283852888289, 22.209623480307805, 114.99455856706324, 51.96173492611924, 62.60454251758616 
124.12515547569586, 9.00539053166011, 22.209414686086088, 114.28094127375002, 52.118624117892445, 62.602822673404425 
123.22937649462263, 9.289128165926982, 22.209196706292683, 113.56623753916273, 52.27799071528219, 62.60107831392235 
122.33403611185174, 9.576425923847953, 22.208969370651683, 112.85040729039609, 52.439813959098885, 62.59930984344334 
121.43909499463581, 9.867212368556146, 22.208732515266345, 112.13340918083217, 52.604072729369214, 62.59751767552262 
120.54451201831385, 10.161415472040003, 22.20848598295467, 111.41520054864588, 52.77074554379357, 62.5957022329968 
119.65024427690001, 10.458962628007496, 22.208229623578166, 110.6957373738788, 52.93981055597248, 62.5938639480083 
118.75624709427565, 10.759780663722042, 22.207963294363314, 109.9749742340115, 53.11124555338856, 62.59200326202413 
117.86247403594699, 11.063795850800183, 22.207686860215418, 109.25286425796317, 53.28502795513072, 62.59012062584932 
116.96887692133254, 11.370933914963514, 22.207400194024295, 108.52935907844297, 53.4611348093462, 62.588216499634065 
116.07540583654922, 11.681120044738964, 22.20710317696148, 107.80440878257487, 53.6395427904058, 62.58629135287532 
115.18200914767012, 11.994278899103163, 22.20679569876849, 107.07796186071425, 53.82022819576671, 62.584345664411785 
114.28863351443005, 12.310334614068811, 22.20647765803582, 106.34996515337039, 54.00316694251692, 62.58237992241291 
113.39522390436079, 12.629210808212276, 22.206148962472138, 105.62036379614655, 54.188334563584206, 62.580394624361006 
112.50172360734089, 12.9508305871436, 22.205809529163574, 104.88910116260385, 54.37570620359227, 62.57839027702702 
111.60807425055108, 13.275116546921552, 22.205459284822506, 104.15611880495288, 54.56525661434536, 62.57636739643931 
110.71421581382967, 13.601990776418269, 22.20509816602556, 103.42135639247138, 54.756960149922115, 62.574326507845434 
109.82008664542872, 13.931374858639124, 22.20472611944062, 102.68475164754317, 54.95079076135847, 62.57226814566696 
108.92562347817604, 14.26318987100561, 22.204343102042337, 101.9462402792088, 55.14672199089837, 62.57019285344693 
108.03076144605316, 14.597356384610208, 22.203949081316008, 101.2057559141134, 55.34472696578998, 62.5681011837902 
107.1354341012064, 14.933794462453736, 22.2035440354494, 100.46323002473365, 55.544778391604055, 62.56599369829592 
106.23957343141134, 15.272423656677505, 22.203127953512368, 99.71859185475975, 55.746848545050206, 62.56387096748299 
105.34310987801953, 15.61316300480373, 22.202700835623833, 98.97176834150484, 55.950909266264865, 62.561733570707396 
104.44597235441964, 15.955931024999645, 22.20226269310613, 98.22268403520779, 56.156931950544376, 62.55958209607212 
