# MEX_intpoint_lon [deg], MEX_intpoint_lat [deg], MEX_intpoint_angle [deg], TGO_intpoint_lon [deg], TGO_intpoint_lat [deg], TGO_intpoint_angle [deg] 
-104.17776864333209, 20.476053016798776, 22.440040366428907, -156.47155830925058, 59.14921188717495, 62.52846858972574 
-105.08260440581485, 20.102145838271156, 22.44064032962332, -157.27096211800884, 58.92904677358737, 62.53065419865608 
-105.98574143577581, 19.7292715957432, 22.441229568859804, -158.06679940366462, 58.71035668833994, 62.5328342332879 
-106.88727342610814, 19.357520553373462, 22.44180791747516, -158.8591836644129, 58.49317713881811, 62.53500803340578 
-107.7872926817571, 18.986982307193433, 22.442375221789277, -159.64822482828123, 58.27754300260662, 62.53717494519013 
-108.68589009306365, 18.617745803090074, 22.442931341124805, -160.4340293736928, 58.063488545864274, 62.5393343214017 
-109.58315511049852, 18.24989935401261, 22.443476147810976, -161.21670044577152, 57.85104744069911, 62.54148552155837 
-110.47917572065576, 17.883530656367096, 22.444009527171854, -161.99633796851364, 57.6402527815909, 62.54362791210483 
-111.37403842338433, 17.518726805564434, 22.444531377499086, -162.77303875295135, 57.431137100905076, 62.545760866574454 
-112.26782820994478, 17.155574310689687, 22.445041610009007, -163.54689660143455, 57.22373238354092, 62.547883765743784 
-113.16062854208685, 16.794159108262594, 22.445540148784445, -164.31800240815744, 57.01807008075395, 62.54999599777962 
-114.05252133195211, 16.434566575061268, 22.44602693070126, -165.08644425605524, 56.81418112319148, 62.55209695837842 
-114.94358692271373, 16.076881539982644, 22.446501905339645, -165.85230751019492, 56.612095933177905, 62.55418605089848 
-115.83390406987412, 15.721188294915159, 22.446965034880506, -166.61567490778424, 56.411844436284674, 62.55626268648444 
-116.72354992314804, 15.367570604600951, 22.447416293986976, -167.37662664491813, 56.2134560722188, 62.55832628418445 
-117.61260000886705, 15.016111715466057, 22.447855669671338, -168.13524046018293, 56.01695980506109, 62.56037627106015 
-118.50112821284813, 14.66689436339936, 22.448283161147458, -168.89159171523332, 55.82238413288523, 62.562412082289 
-119.38920676367682, 14.320000780461646, 22.448698779669062, -169.64575347245636, 55.62975709678611, 62.56443316125958 
-120.27690621636161, 13.975512700508723, 22.449102548354016, -170.39779656983342, 55.439106289345375, 62.56643895965974 
-121.16429543632417, 13.633511363712824, 22.449494501994895, -171.14778969310765, 55.25045886256055, 62.56842893755749 
-122.05144158369495, 13.294077519969159, 22.449874686856173, -171.89579944536212, 55.063841535262796, 62.57040256347483 
-122.93841009789224, 12.957291431174896, 22.450243160458136, -172.6418904141109, 54.87928060004751, 62.57235931445479 
-123.82526468246697, 12.623232872370183, 22.4505999913481, -173.38612523600116, 54.696801929740545, 62.5742986761216 
-124.71206729020308, 12.291981131731555, 22.450945258858994, -174.12856465922334, 54.5164309834222, 62.576220142733845 
-125.59887810846848, 11.963615009410098, 22.45127905285585, -174.8692676037207, 54.33819281202968, 62.578123217231436 
-126.48575554481724, 11.638212815208027, 22.451601473470358, -175.60829121928919, 54.16211206355847, 62.580007411275645 
-127.3727562128503, 11.315852365088736, 22.45191263082405, -176.34569094165383, 53.98821298788123, 62.58187224528302 
-128.2599349183454, 10.996610976517324, 22.452212644740303, -177.0815205466049, 53.81651944120305, 62.583717248452814 
-129.14734464567448, 10.680565462629785, 22.452501644445714, -177.81583220227583, 53.64705489017043, 62.58554195878857 
-130.0350365445296, 10.367792125231128, 22.452779768261117, -178.54867651963932, 53.47984241565077, 62.58734592311336 
-130.92305991698527, 10.058366746623992, 22.45304716328279, -179.28010260129798, 53.31490471619839, 62.58912869707954 
-131.81146220492812, 9.75236458027146, 22.453303985054138, 179.98984191135892, 53.152264111222884, 62.590889845172526 
-132.7002889778903, 9.4498603402993, 22.453550397228426, 179.26111079256233, 52.99194254387409, 62.59262894070926 
-133.58958392132686, 9.150928189844937, 22.453786571222953, 178.5336591880676, 52.83396158365841, 62.59434556583119 
-134.47938882538162, 8.855641728262247, 22.45401268586509, 177.8074435724905, 52.678342428799716, 62.596039311492085 
-135.36974357418987, 8.56407397719336, 22.454228927030734, 177.08242170801412, 52.52510590835818, 62.597709777440805 
-136.26068613576962, 8.276297365520605, 22.454435487275628, 176.35855260440547, 52.374272484119494, 62.59935657219934 
-137.1522525525568, 7.992383713214004, 22.454632565460013, 175.63579648028602, 52.22586225226672, 62.60097931303599 
-138.04447693264285, 7.712404214091721, 22.45482036636711, 174.91411472559986, 52.07989494484622, 62.602577625934266 
-138.93739144177624, 7.436429417513113, 22.454999100316037, 174.19346986522703, 51.936389931039066, 62.604151145557324 
-139.83102629619157, 7.16452920902649, 22.45516898276949, 173.47382552369098, 51.7953662182487, 62.6056995152085 
-140.7254097563329, 6.896772789995728, 22.455330233936888, 172.75514639091102, 51.656842453014974, 62.607222386787754 
-141.6205681215399, 6.6332286562325224, 22.455483078373447, 172.03739818895343, 51.52083692176498, 62.608719420744535 
-142.51652572576603, 6.373964575663279, 22.45562774457558, 171.32054763973565, 51.38736755141019, 62.61019028602704 
-143.41330493440205, 6.1190475650621945, 22.45576446457343, 170.60456243364033, 51.256451909799, 62.611634660028294 
-144.31092614227595, 5.868543865884489, 22.455893473520813, 169.88941119899786, 51.128107206033945, 62.61305222852909 
-145.20940777290411, 5.622518919236301, 22.456015009283256, 169.17506347239765, 51.002350290662264, 62.61444268563792 
-146.10876627906669, 5.381037340020213, 22.456129312024643, 168.4614896697895, 50.87919765574794, 62.61580573372839 
-147.00901614478227, 5.144162890297892, 22.456236623792986, 167.74866105833897, 50.75866543483362, 62.61714108337416 
-147.91016988875467, 4.911958451913823, 22.456337188105934, 167.03654972900097, 50.64076940280004, 62.618448453281374 
-148.81223806936575, 4.684485998426614, 22.456431249536465, 166.32512856977797, 50.52552497563054, 62.619727570219396 
-149.71522929128528, 4.46180656639688, 22.456519053299388, 165.61437123963123, 50.41294721008807, 62.62097816894945 
-150.61915021376979, 4.243980226082871, 22.45660084483923, 164.90425214301234, 50.303050803311656, 62.62219999215153 
-151.52400556071748, 4.031066051597802, 22.4566768694199, 164.19474640498711, 50.1958500923391, 62.62339279035039 
-152.42979813254723, 3.823122090584714, 22.4567473717169, 163.48582984692194, 50.09135905356281, 62.62455632183961 
-153.3365288199639, 3.620205333467223, 22.456812595412316, 162.77747896270594, 49.98959130212465, 62.625690352605176 
-154.24419661967164, 3.4223716823366175, 22.456872782793486, 162.06967089548226, 49.89056009125648, 62.62679465624815 
-155.1527986520922, 3.2296759195376024, 22.456928174355586, 161.36238341486364, 49.794278311572036, 62.62786901390648 
-156.06233018114088, 3.0421716760172153, 22.45697900840876, 160.65559489460762, 49.70075849031596, 62.628913214176784 
-156.97278463610965, 2.8599113995031193, 22.457025520690348, 159.94928429072897, 49.61001279057565, 62.62992705303564 
-157.88415363570152, 2.682946322578978, 22.457067943982707, 159.24343112002634, 49.52205301046116, 62.63091033376106 
-158.79642701425524, 2.5113264307265046, 22.457106507737013, 158.53801543900224, 49.43689058225857, 62.63186286685405 
-159.70959285019433, 2.3451004304046803, 22.457141437703804, 157.833017823156, 49.35453657156148, 62.63278446996063 
-160.62363749672824, 2.1843157172382037, 22.457172955570417, 157.12841934662953, 49.27500167638579, 62.63367496779443 
-161.53854561482754, 2.0290183443879397, 22.457201278606114, 156.42420156218805, 49.198296226272184, 62.6345341920599 
-162.45430020848897, 1.8792529911770326, 22.45722661931513, 155.72034648151663, 49.12443018138101, 62.63536198137676 
-163.37088266229836, 1.7350629320468707, 22.457249185098235, 155.01683655581598, 49.05341313158363, 62.6361581812053 
-164.2882727812945, 1.5964900059173792, 22.457269177923244, 154.3136546566805, 48.985254295554526, 62.6369226437731 
-165.2064488331275, 1.4635745860263976, 22.457286794004826, 153.61078405724268, 48.91996251986811, 62.63765522800321 
-166.12538759249975, 1.3363555503225224, 22.45730222349413, 152.9082084135686, 48.85754627810406, 62.638355799443936 
-167.0450643878691, 1.2148702524855182, 22.457315650178632, 152.20591174628933, 48.79801366996475, 62.63902423020046 
-167.96545315038628, 1.0991544936478839, 22.457327251192506, 151.50387842245487, 48.741372420408354, 62.639660398868386 
-168.88652646503152, 0.9892424948899614, 22.457337196738067, 150.80209313759573, 48.68762987880087, 62.640264190469324 
-169.80825562390666, 0.885166870580128, 22.45734564981847, 150.1005408979805, 48.636793018090295, 62.6408354963888 
-170.73061068163196, 0.7869586026300152, 22.457352765982165, 149.39920700305484, 48.58886843400592, 62.641374214316585 
-171.65356051278906, 0.6946470157329291, 22.457358693079357, 148.6980770280519, 48.543862344285536, 62.641880248189345 
-172.57707287134315, 0.6082597536519952, 22.457363571030864, 147.9971368067601, 48.501780587933425, 62.64235350813607 
-173.501114451971, 0.52782275662191, 22.45736753160963, 147.29637241443842, 48.46262862451141, 62.64279391042627 
-174.42565095321368, 0.4533602399261272, 22.457370698235213, 146.5957701508676, 48.426411533465526, 62.643201377421036 
-175.35064714236478, 0.3848946737082474, 22.457373185781467, 145.89531652352625, 48.39313401349057, 62.643575837526924 
-176.27606692200024, 0.3224467640736236, 22.457375100397726, 145.19499823088225, 48.362800381934285, 62.64391722515307 
-177.2018733980468, 0.26603543553388437, 22.45737653934382, 144.49480214578833, 48.33541457424358, 62.64422548067148 
-178.12802894928174, 0.21567781484372273, 22.457377590838814, 143.7947152989729, 48.31098014345405, 62.64450055038048 
-179.0544952981497, 0.1713892162755237, 22.45737833392414, 143.09472486261615, 48.28950025972469, 62.644742386471535 
-179.98123358277772, 0.13318312837380833, 22.457378838340908, 142.39481813400192, 48.27097770991918, 62.64495094699947 
179.0917955699364, 0.10107120222714688, 22.457379164421738, 141.69498251923656, 48.255414897234985, 62.64512619585618 
178.1646319702904, 0.07506324129127702, 22.45737936299723, 140.9952055170255, 48.24281384088138, 62.64526810274779 
177.23731579093214, 0.05516719279266171, 22.457379475317293, 140.29547470249878, 48.23317617580751, 62.64537664317547 
176.30988749133797, 0.04138914073729977, 22.45737953298711, 139.5957777110768, 48.226503152481094, 62.64545179841976 
175.38238774175412, 0.0337333005450312, 22.457379557918355, 138.89610222236792, 48.2227956367187, 62.64549355552873 
174.45485734674247, 0.03220201532493328, 22.45737956229514, 138.19643594408907, 48.22205410956778, 62.64550190730947 
173.52733716847413, 0.03679575380252889, 22.457379548555267, 137.49676659600104, 48.224278667241094, 62.64547685232369 
172.59986804991405, 0.04751310990495906, 22.457379509386342, 136.79708189385016, 48.2294690211036, 62.64541839488661 
171.6724907380423, 0.06435080400523996, 22.457379427737173, 136.09736953330784, 48.237624497711785, 62.64532654506985 
170.7452458072555, 0.08730368582198356, 22.45737927684416, 135.39761717389968, 48.24874403890552, 62.64520131870787 
169.8181735830927, 0.11636473896623636, 22.457379020272707, 134.69781242291546, 48.26282620195189, 62.64504273740804 
168.891314066428, 0.15152508712214716, 22.45737861197363, 133.99794281929204, 48.279869159740805, 62.644850828564536 
167.96470685826947, 0.19277400184359414, 22.457377996354552, 133.2979958174599, 48.29987070103176, 62.64462562537575 
167.03839108530286, 0.24009891194422145, 22.457377108366, 132.59795877114553, 48.32282823075082, 62.64436716686523 
166.11240532631422, 0.29348541445390036, 22.45737587360229, 131.89781891712002, 48.34873877033727, 62.64407549790635 
165.18678753962246, 0.35291728710995934, 22.45737420841692, 131.1975633588857, 48.377598958138485, 62.64375066925026 
164.26157499164808, 0.4183765023476863, 22.457372020052432, 130.49717905029127, 48.40940504985221, 62.64339273755743 
163.3368041867404, 0.48984324275004415, 22.457369206784502, 129.79665277906633, 48.44415291901453, 62.64300176543255 
162.41251079837951, 0.5672959179130069, 22.45736565808002, 129.09597115026594, 48.48183805753224, 62.642577821462524 
161.48872960186392, 0.6507111826788256, 22.457361254769065, 128.39512056961541, 48.522455576257954, 62.64212098025808 
160.56549440858953, 0.7400639566863613, 22.45735586923055, 127.69408722674503, 48.566000205605825, 62.64163132249792 
159.6428380020173, 0.83532744518398, 22.45734936559107, 126.99285707830538, 48.61246629620638, 62.64110893497648 
158.7207920754226, 0.9364731610476051, 22.457341599937, 126.29141583095175, 48.66184781959781, 62.64055391065431 
157.7993871715102, 1.0434709479436428, 22.45733242053934, 125.58974892418713, 48.714138368951815, 62.639966348711184 
156.87865262397295, 1.1562890045738736, 22.45732166809109, 124.88784151305279, 48.769331159831324, 62.63934635460213 
155.95861650106417, 1.2748939099370131, 22.457309175956826, 124.1856784506544, 48.82741903097758, 62.63869404011598 
155.03930555124626, 1.3992506495396977, 22.457294770434192, 123.48324427051196, 48.888394445123836, 62.638009523436196 
154.12074515097052, 1.529322642487653, 22.457278271026826, 122.78052316872098, 48.952249489832504, 62.63729292920423 
153.20295925463512, 1.665071769386348, 22.45725949072855, 122.07749898591184, 49.01897587835314, 62.63654438858489 
152.28597034676085, 1.8064584009791744, 22.457238236318293, 121.37415518899431, 49.08856495049752, 62.635764039333836 
151.36979939641608, 1.9534414274500105, 22.45721430866538, 120.67047485267265, 49.16100767352873, 62.634952025866866 
150.4544658139151, 2.105978288316429, 22.45718750304491, 119.96644064071769, 49.23629464306053, 62.63410849933096 
149.53998740980592, 2.264025002839188, 22.457157609462634, 119.2620347869798, 49.31441608396343, 62.63323361767692 
148.6263803561564, 2.4275362008734134, 22.45712441298895, 118.5572390761279, 49.39536185127345, 62.632327545733226 
147.7136591501413, 2.596465154086878, 22.457087694101673, 117.85203482409777, 49.479121431099486, 62.631390455281284 
146.80183657992353, 2.7707638074709453, 22.457047229037023, 117.14640285823303, 49.56568394152526, 62.630422525131685 
145.89092369281815, 2.9503828110703125, 22.45700279014839, 116.44032349710035, 49.6550381335012, 62.629423941201146 
144.98092976572067, 3.1352715518581893, 22.45695414627237, 115.73377652996155, 49.74717239172192, 62.62839489659041 
144.071862277774, 3.325378185684616, 22.456901063101736, 115.02674119588235, 49.84207473548435, 62.62733559166237 
143.16372688524334, 3.520649669226478, 22.456843303564575, 114.31919616245854, 49.939732819521836, 62.62624623412058 
142.25652739856275, 3.7210317918692843, 22.456780628209447, 113.61111950413789, 50.040133934808836, 62.625127039087964 
141.35026576151154, 3.9264692074519183, 22.4567127955957, 112.9024886801171, 50.14326500933125, 62.62397822918523 
140.44494203247325, 4.136905465807513, 22.456639562688665, 112.19328051179001, 50.24911260881654, 62.62280003460912 
139.54055436772717, 4.352283044034893, 22.456560685259134, 111.48347115972419, 50.357662937418404, 62.621592693210246 
138.637099006716, 4.572543377437395, 22.456475918286618, 110.77303610014076, 50.46890183834973, 62.62035645056987 
137.7345702592317, 4.797626890067466, 22.456385016365736, 110.0619501008721, 50.58281479445809, 62.619091560076356 
136.83296049445673, 5.027473024817688, 22.45628773411542, 109.35018719677045, 50.69938692873727, 62.61779828299977 
135.93226013179532, 5.262020273001195, 22.456183826590134, 108.63772066453924, 50.81860300476854, 62.61647688856584 
135.03245763342824, 5.5012062033664515, 22.456073049692836, 107.92452299695836, 50.94044742708478, 62.615127654028036 
134.13353949851998, 5.7449674904939645, 22.45595516058888, 107.21056587647267, 51.0649042414506, 62.613750864737874 
133.23549025900832, 5.993239942524693, 22.455829918120497, 106.49582014811223, 51.19195713505132, 62.61234681421344 
132.33829247690264, 6.245958528172539, 22.455697083221256, 105.78025579171094, 51.321589436583245, 62.61091580420571 
131.44192674301814, 6.503057402975586, 22.4555564193299, 105.06384189338952, 51.4537841162377, 62.60945814476234 
130.546371677072, 6.764469934743438, 22.45540769280304, 104.34654661626641, 51.588523785570715, 62.60797415428913 
129.6516039290667, 7.030128728160361, 22.455250673326304, 103.62833717035961, 51.72579069725027, 62.6064641596085 
128.75759818188797, 7.299965648506543, 22.4550851343231, 102.90917978164002, 51.86556674467247, 62.60492849601508 
127.86432715504249, 7.57391184446218, 22.45491085336077, 102.18903966019595, 52.007833461437805, 62.603367507328066 
126.97176160946495, 7.851897769961699, 22.454727612553366, 101.4678809674662, 52.15257202067845, 62.601781545940156 
126.07987035332168, 8.133853205067828, 22.45453519896066, 100.74566678249751, 52.29976323422704, 62.60017097286286 
125.18862024874315, 8.419707275837556, 22.45433340498274, 100.02235906718073, 52.449387551616994, 62.59853615776817 
124.29797621941664, 8.709388473154661, 22.454122028749833, 99.29791863041726, 52.60142505890441, 62.596877479026006 
123.4079012589746, 9.002824670505502, 22.453900874506648, 98.57230509116641, 52.75585547730075, 62.59519532373763 
122.5183564401157, 9.299943140677454, 22.45366975299082, 97.84547684032133, 52.91265816160535, 62.593490087764536 
121.62930092439875, 9.600670571361142, 22.453428481805084, 97.11739100135979, 53.071812098426385, 62.591762175752955 
120.74069197265233, 9.904933079640452, 22.453176885782373, 96.38800338971322, 53.233295904178384, 62.59001200115342 
119.85248495594703, 10.21265622535563, 22.452914797343666, 95.6572684707957, 53.397087822843964, 62.588239986235614 
118.96463336707943, 10.523765023327766, 22.452642056847907, 94.92513931663208, 53.56316572348692, 62.58644656209773 
118.07708883252197, 10.83818395443417, 22.452358512933642, 94.19156756102151, 53.73150709750325, 62.58463216867107 
117.1898011247963, 11.155836975526627, 22.452064022851882, 93.45650335317139, 53.902089055596356, 62.582797254718706 
116.30271817523146, 11.476647528186252, 22.451758452789655, 92.71989530973225, 54.074888324461796, 62.58094227782897 
115.41578608707358, 11.80053854631042, 22.45144167818398, 91.98169046516377, 54.24988124316636, 62.57906770440269 
114.52894914891704, 12.12743246252928, 22.451113584025737, 91.24183422035719, 54.427043759206015, 62.57717400963508 
113.64214984843339, 12.457251213450723, 22.450774065153006, 90.50027028943838, 54.60635142422589, 62.575261677491 
112.75532888637782, 12.789916243734881, 22.450423026533535, 89.75694064467154, 54.78777938938547, 62.57333120067456 
111.86842519085897, 13.125348509000215, 22.45006038353588, 89.01178545938217, 54.97130240035075, 62.57138308059187 
110.98137593186262, 13.463468477565536, 22.449686062188995, 88.26474304881289, 55.1568947918948, 62.56941782730782 
110.0941165360259, 13.804196131033303, 22.449299999429677, 87.51574980882528, 55.344530482087116, 62.56743595949585 
109.20658070166374, 14.14745096372129, 22.44890214333772, 86.76474015235553, 55.534182966051176, 62.565438004381384 
108.31870041405523, 14.493151980951406, 22.448492453358448, 86.01164644352983, 55.725825309268835, 62.5634244976782 
107.4304059610038, 14.841217696205423, 22.44807090051208, 85.25639892934258, 55.919430140409105, 62.561395983518125 
106.54162594869094, 15.191566127159431, 22.447637467590013, 84.49892566879622, 56.11496964365773, 62.55935301437342 
105.65228731784995, 15.544114790609699, 22.44719214933736, 83.73915245940012, 56.31241555052318, 62.55729615097258 
104.7623153602921, 15.898780696304707, 22.44673495262169, 82.9770027609211, 56.511739131092945, 62.55522596220835 
