# MEX_intpoint_lon [deg], MEX_intpoint_lat [deg], MEX_intpoint_angle [deg], TGO_intpoint_lon [deg], TGO_intpoint_lat [deg], TGO_intpoint_angle [deg] 
-104.56730092116217, 20.56526587084827, 22.675205807411462, -170.69680008791312, 59.03976661503072, 62.53138533299144 
-105.46490332938517, 20.179220374668798, 22.67583449202587, -171.49001890716713, 58.81628265457753, 62.53360881527441 
-106.36079818010863, 19.794276094839546, 22.676451631818775, -172.27972100238287, 58.594311050736685, 62.53582652886514 
-107.25508422113401, 19.410524574498094, 22.677057052621088, -173.0660200182915, 58.373887160990144, 62.53803780230222 
-108.14785865670174, 19.028056677281896, 22.67765059424228, -173.84902596104402, 58.15504572148187, 62.54024197074988 
-109.03921712506077, 18.646962608217553, 22.678232110489947, -174.6288453241799, 57.937820865336136, 62.54243837618523 
-109.92925367728672, 18.26733193369858, 22.678801469172424, -175.40558120993595, 57.722246139957115, 62.544626367577635 
-110.81806075720836, 17.889253600517968, 22.679358552084654, -176.17933344604677, 57.50835452335818, 62.54680530106033 
-111.70572918231433, 17.512815953923024, 22.679903254977226, -176.950198698191, 57.29617843956752, 62.548974540094584 
-112.59234812551993, 17.138106754663095, 22.68043548750876, -177.7182705782334, 57.08574977315424, 62.55113345562558 
-113.47800509768557, 16.76521319500178, 22.680955173181708, -178.48363974841257, 56.8770998829169, 62.55328142623097 
-114.36278593078568, 16.39422191366773, 22.681462249261724, -179.24639402162188, 56.670259614774565, 62.55541783826154 
-115.24677476163778, 16.0252190097196, 22.68195666668072, 179.99338154207263, 56.46525931389838, 62.55754208597397 
-116.13005401610918, 15.658290055302151, 22.682438389923732, 179.23560454253538, 56.262128836120006, 62.559653571656234 
-117.01270439372715, 15.293520107272597, 22.682907396899946, 178.48019515014744, 56.0608975586512, 62.56175170574506 
-117.89480485262825, 14.930993717677023, 22.683363678797857, 177.72707601974076, 55.86159439014765, 62.56383590693569 
-118.77643259478772, 14.570794943059024, 22.683807239924946, 176.9761722077495, 55.66424778014802, 62.56590560228451 
-119.65766305148121, 14.213007352583132, 22.684238097532077, 176.22741109245067, 55.46888572791814, 62.56796022730358 
-120.53856986893504, 13.857714034957992, 22.684656281622818, 175.48072229717062, 55.275535790728796, 62.56999922604835 
-121.41922489413182, 13.504997604144659, 22.685061834748044, 174.73603761633734, 55.08422509159378, 62.57202205119737 
-122.2996981607426, 13.154940203837434, 22.68545481178607, 173.99329094426244, 54.894980326494455, 62.57402816412529 
-123.18005787516607, 12.807623510705538, 22.68583527970859, 173.25241820654026, 54.70782777111481, 62.576017034968295 
-124.06037040266004, 12.463128736385622, 22.686203317332872, 172.51335729395663, 54.52279328711103, 62.57798814268269 
-124.9407002535585, 12.1215366282162, 22.686559015060404, 171.77604799880112, 54.339902327937416, 62.579940975096406 
-125.82111006957311, 11.782927468706589, 22.68690247460244, 171.0404319534829, 54.1591799442503, 62.58187502895363 
-126.7016606101839, 11.447381073734608, 22.68723380869283, 170.3064525713525, 53.980650788910225, 62.58378980995278 
-127.58241073913156, 11.11497678946824, 22.687553140788484, 169.5740549896353, 53.804339121601814, 62.58568483277789 
-128.46341741102654, 10.785793488008547, 22.687860604757898, 168.84318601438693, 53.63026881309007, 62.587559621123354 
-129.34473565809955, 10.459909561752326, 22.688156344558127, 168.1137940673833, 53.45846334913075, 62.58941370771257 
-130.2264185771198, 10.137402916474828, 22.688440513900773, 167.3858291348621, 53.28894583405197, 62.5912466343103 
-131.10851731651542, 9.81835096313434, 22.688713275907233, 166.6592427180344, 53.12173899402324, 62.59305795172888 
-131.991081063734, 9.502830608402636, 22.688974802753823, 165.93398778529047, 52.95686518002762, 62.59484721982888 
-132.8741570328861, 9.190918243926424, 22.689225275307194, 165.2100187260243, 52.79434637055204, 62.596614007513786 
-133.75779045272074, 8.882689734327647, 22.6894648827506, 164.48729130600623, 52.634204174009895, 62.598357892719285 
-134.6420245549834, 8.578220403951864, 22.689693822201324, 163.76576262423507, 52.47645983090992, 62.60007846239712 
-135.5269005632148, 8.277585022376167, 22.68991229832004, 163.04539107120382, 52.32113421578456, 62.601775312493885 
-136.41245768205005, 7.980857788690402, 22.69012052291239, 162.3261362885159, 52.16824783889034, 62.603448047924786 
-137.29873308708213, 7.688112314567457, 22.69031871452347, 161.60795912979162, 52.01782084769265, 62.60509628254248 
-138.18576191535868, 7.399421606140765, 22.690507098025652, 160.89082162280664, 51.869873028146614, 62.60671963910158 
-139.07357725658161, 7.114858044709399, 22.690685904200336, 160.17468693280634, 51.724423805785314, 62.60831774921851 
-139.96221014508436, 6.834493366293876, 22.690855369314253, 159.45951932694356, 51.581492246626254, 62.60989025332721 
-140.85168955266334, 6.558398640067779, 22.691015734690676, 158.74528413978751, 51.44109705790657, 62.611436800631 
-141.742042382342, 6.286644245693422, 22.69116724627635, 158.03194773985518, 51.30325658865704, 62.61295704905042 
-142.63329346314887, 6.019299849591917, 22.691310154204544, 157.3194774971184, 51.167988830124635, 62.61445066516768 
-143.52546554599203, 5.756434380180919, 22.69144471235484, 156.60784175144096, 51.03531141605303, 62.61591732416745 
-144.41857930071419, 5.498116002115931, 22.69157117791033, 155.8970097819025, 50.90524162283002, 62.61735670977486 
-145.31265331441278, 5.244412089573872, 22.69168981091261, 155.18695177696833, 50.777796369510774, 62.618768514190315 
-146.2077040911112, 4.995389198620217, 22.691800873815385, 154.4776388054648, 50.65299221772518, 62.62015243802158 
-147.10374605286643, 4.751113038703862, 22.691904631037104, 153.7690427883222, 50.53084537147749, 62.6215081902135 
-148.00079154239864, 4.511648443326812, 22.69200134851327, 153.06113647104925, 50.41137167684623, 62.62283548797511 
-148.89885082732783, 4.27705933993813, 22.692091293249057, 152.35389339690366, 50.294586621591904, 62.62413405670515 
-149.79793210610055, 4.047408719104899, 22.69217473287275, 151.64728788072546, 50.1805053346798, 62.625403629915176 
-150.69804151568988, 3.8227586030151013, 22.69225193519063, 150.94129498340104, 50.06914258572522, 62.62664394915148 
-151.5991831411481, 3.6031700133704976, 22.692323167743925, 150.23589048692756, 49.960512784367715, 62.62785476391525 
-152.50135902709033, 3.38870293872976, 22.692388697368333, 149.53105087004715, 49.8546299795813, 62.62903583158177 
-153.40456919118378, 3.1794163013650025, 22.69244878975677, 148.82675328442429, 49.75150785892682, 62.63018691731846 
-154.3088116397144, 2.9753679236971227, 22.69250370902587, 148.12297553133814, 49.65115974775286, 62.63130779400218 
-155.21408238529864, 2.77661449437768, 22.692553717286852, 147.4196960388643, 49.553598608351116, 62.6323982421361 
-156.12037546680386, 2.583211534087425, 22.692599074221278, 146.71689383952142, 49.45883703907208, 62.63345804976584 
-157.02768297153568, 2.395213361123577, 22.692640036662294, 146.01454854835882, 49.366887273406654, 62.63448701239602 
-157.93599505974672, 2.2126730568498765, 22.69267685818187, 145.31264034146218, 49.277761179039096, 62.63548493290642 
-158.84529999151383, 2.0356424310853143, 22.692709788684652, 144.6111499348559, 49.19147025687664, 62.63645162146851 
-159.75558415602634, 1.864171987508871, 22.692739074008873, 143.9100585637804, 49.10802564006067, 62.63738689546263 
-160.66683210332062, 1.6983108891592298, 22.69276495553493, 143.20934796232595, 49.02743809296444, 62.638290579395495 
-161.5790265784895, 1.5381069241094072, 22.692787669802055, 142.5090003434017, 48.9497180101821, 62.63916250481894 
-162.49214855838812, 1.38360647139733, 22.69280744813373, 141.80899837902385, 48.8748754155134, 62.64000251024942 
-163.40617729085056, 1.23485446729407, 22.69282451627218, 141.1093251809029, 48.802919960948564, 62.640810441088796 
-164.32109033642314, 1.0918943719919003, 22.692839094022514, 140.40996428131547, 48.733860925657424, 62.64158614954666 
-165.2368636126121, 0.9547681367947344, 22.692851394907027, 139.7108996142424, 48.667707214986905, 62.64232949456409 
-166.15347144063648, 0.8235161718931356, 22.69286162582997, 139.01211549675912, 48.604467359470725, 62.64304034173929 
-167.07088659466658, 0.6981773148060774, 22.692869986753415, 138.31359661066213, 48.54414951385496, 62.64371856325501 
-167.9890803535211, 0.5787887995708155, 22.69287667038454, 137.61532798431807, 48.486761456142894, 62.64436403780821 
-168.90802255478675, 0.4653862267613937, 22.6928818618747, 136.91729497472122, 48.43231058666289, 62.64497665054183 
-169.8276816513155, 0.3580035344151002, 22.692885738530858, 136.2194832497459, 48.380803927162006, 62.645556292979116 
-170.74802477004525, 0.25667296994465155, 22.69288846953958, 135.52187877058157, 48.332248119928764, 62.646102862960184 
-171.6690177730825, 0.1614250631120709, 22.69289021570402, 134.8244677743377, 48.286649426947825, 62.64661626458164 
-172.59062532097371, 0.07228860013820265, 22.692891129194336, 134.1272367568069, 48.244013729089296, 62.64709640813864 
-173.51281093808797, -0.010709400980793034, 22.692891353311712, 133.43017245537462, 48.204346525335225, 62.647543210070296 
-174.43553708002045, -0.08754371388111891, 22.692891022266366, 132.73326183206447, 48.16765293204581, 62.647956592907434 
-175.3587652029215, -0.15819092589745812, 22.692890260969957, 132.0364920567083, 48.133937682267415, 62.648336485224426 
-176.28245583464684, -0.2226294587250449, 22.692889184842436, 131.33985049023084, 48.10320512508456, 62.64868282159348 
-177.20656864761676, -0.28083958761879446, 22.692887899633796, 130.6433246680382, 48.07545922501793, 62.64899554254266 
-178.1310625332652, -0.33280345907420766, 22.692886501260855, 129.94690228350143, 48.050703561469994, 62.64927459451741 
-179.05589567795343, -0.37850510693911205, 22.692885075659305, 129.25057117152468, 48.02894132821996, 62.64951992984534 
-179.9810256402162, -0.4179304669092871, 22.69288369865129, 128.5543192921887, 48.01017533296949, 62.649731506704775 
179.09359057079772, -0.4510673893656714, 22.69288243582859, 127.85813471446124, 47.994407996940666, 62.64990928909707 
178.167996415833, -0.47790565051550005, 22.692881342451592, 127.16200559996464, 47.98164135452693, 62.65005324682233 
177.24223574513096, -0.49843696180449254, 22.692880463364283, 126.46592018679209, 47.97187705299849, 62.65016335545921 
176.31635271728, -0.5126549775723435, 22.692879832925207, 125.76986677336403, 47.96511635226268, 62.65023959634842 
175.39039171746768, -0.5205553009287457, 22.69287947495467, 125.07383370231598, 47.96136012468009, 62.65028195658 
174.4643972752921, -0.5221354878325625, 22.692879402698026, 124.37780934440936, 47.96060885493693, 62.65029042898461 
173.53841398229196, -0.5173950493619641, 22.69287961880537, 123.68178208245696, 47.96286263997396, 62.65026501212865 
172.61248640935582, -0.5063354521688137, 22.692880115327444, 122.98574029525456, 47.96812118897238, 62.650205710313244 
171.6866590241714, -0.48896011711588494, 22.692880873727862, 122.28967234151071, 47.97638382339636, 62.65011253357711 
170.76097610887643, -0.4652744161010334, 22.6928818649116, 121.59356654376577, 47.98764947709248, 62.64998549770362 
169.83548167807047, -0.43528566707773636, 22.692883049269785, 120.89741117229232, 48.00191669644545, 62.64982462423121 
168.91021939734676, -0.3990031272868456, 22.69288437674058, 120.20119442896842, 48.019183640590036, 62.649629940468195 
167.9852325024999, -0.35643798471956684, 22.69288578688629, 119.50490443111487, 48.039448081678245, 62.64940147951112 
167.0605637195624, -0.30760334783700916, 22.69288720898632, 118.80852919528837, 48.062707405201216, 62.64913928026685 
166.1362551858198, -0.25251423357660924, 22.69288856214618, 118.11205662102157, 48.088958610364976, 62.64884338747875 
165.21234837195024, -0.19118755368071533, 22.692889755422083, 117.41547447450101, 48.11819831051867, 62.64851385175607 
164.2888840054273, -0.1236420993873053, 22.692890687961167, 116.71877037217443, 48.15042273363451, 62.64815072960752 
163.36590199532262, -0.049898524527548914, 22.692891249157125, 116.02193176427751, 48.18562772283754, 62.6477540834779 
162.44344135863645, 0.03002067292084521, 22.692891318820926, 115.32494591827115, 48.223808736984154, 62.647323981788475 
161.5215401482785, 0.11609117077139312, 22.692890767366585, 114.62779990217949, 48.26496085128727, 62.64686049898071 
160.6002353828148, 0.20828684400048397, 22.69288945601152, 113.93048056781832, 48.30907875798661, 62.646363715563346 
159.67956297808885, 0.3065797874923495, 22.69288723699147, 113.23297453390425, 48.356156767061826, 62.64583371816265 
158.75955768081704, 0.41094034009304165, 22.692883953789398, 112.53526816903349, 48.40618880698648, 62.645270599575696 
157.8402530042511, 0.5213371099061906, 22.692879441378405, 111.8373475745197, 48.45916842552039, 62.64467445882666 
156.9216811659916, 0.6377370007604237, 22.692873526478024, 111.1391985670795, 48.51508879053804, 62.64404540122617 
156.00387302802787, 0.7601052397756772, 22.692866027823808, 110.44080666135396, 48.57394269089018, 62.64338353843305 
155.08685803907198, 0.8884054059535245, 22.69285675644963, 109.74215705225382, 48.635722537296004, 62.642688988518955 
154.17066417924394, 1.0225994597145005, 22.692845515982523, 109.0432345971162, 48.70042036326279, 62.64196187603537 
153.2553179071583, 1.1626477733039113, 22.692832102949488, 108.3440237976595, 48.76802782602997, 62.641202332082955 
152.34084410945232, 1.3085091619861604, 22.69281630709604, 107.64450878172293, 48.83853620753433, 62.64041049438276 
151.4272660527877, 1.4601409159465586, 22.69279791171591, 106.94467328477685, 48.91193641539284, 62.63958650735014 
150.5146053383482, 1.6174988328189055, 22.692776693991572, 106.24450063118886, 48.98821898389956, 62.63873052216969 
149.60288185884846, 1.780537250756544, 22.69275242534508, 105.54397371523069, 49.06737407503277, 62.63784269687242 
148.6921137580594, 1.9492090819645076, 22.692724871798806, 104.84307498180989, 49.14939147946852, 62.63692319641426 
147.78231739284828, 2.1234658466103715, 22.692693794345544, 104.14178640690966, 49.234260617596355, 62.63597219275581 
146.87350729772317, 2.3032577070317863, 22.69265894932756, 103.44008947771974, 49.321970540533016, 62.63498986494325 
145.96569615186405, 2.4885335021594575, 22.69262008882399, 102.73796517244016, 49.41250993112964, 62.633976399190395 
145.05889474861573, 2.679240782074774, 22.692576961046196, 102.0353939397392, 49.50586710496791, 62.6329319889612 
144.15311196740956, 2.8753258426228805, 22.69252931074041, 101.33235567784583, 49.60203001134028, 62.631856835053 
143.2483547480764, 3.076733760002864, 22.6924768795973, 100.6288297132565, 49.70098623420934, 62.630751145680236 
142.34462806750477, 3.2834084252584694, 22.69241940666778, 99.92479477903437, 49.80272299314118, 62.62961513655803 
141.44193491859411, 3.4952925785943307, 22.692356628784566, 99.22022899267951, 49.90722714420748, 62.62844903098593 
140.5402762914461, 3.71232784344466, 22.692288280988958, 98.51510983354589, 50.01448518085066, 62.627253059931405 
139.63965115673395, 3.9344547602232307, 22.692214096962218, 97.80941411978198, 50.12448323470647, 62.62602746211284 
138.7400564511831, 4.161612819685804, 22.69213380946101, 97.10311798476847, 50.23720707637811, 62.624772484081824 
137.84148706509384, 4.393740495838325, 22.69204715075634, 96.39619685302779, 50.352642116155806, 62.62348838030454 
136.94393583183276, 4.63077527832659, 22.691953853075415, 95.68862541557695, 50.47077340467529, 62.62217541324222 
136.0473935192163, 4.872653704245827, 22.69185364904574, 94.98037760469546, 50.591585633509034, 62.620833853430014 
135.1518488227078, 5.119311389310796, 22.69174627214111, 94.27142656807803, 50.71506313568299, 62.619463979554574 
134.25728836034565, 5.370683058330088, 22.69163145712858, 93.56174464234051, 50.84118988611234, 62.61806607852971 
133.36369666932137, 5.626702574930641, 22.691508940516133, 92.85130332584687, 50.969949501948484, 62.61664044557022 
132.47105620412117, 5.887302970481602, 22.691378461000237, 92.14007325082207, 51.101325242830484, 62.61518738426337 
131.57934733614746, 6.152416472168895, 22.691239759912822, 91.42802415471618, 51.23530001103226, 62.61370720663802 
130.68854835473377, 6.421974530175327, 22.691092581667036, 90.71512485078156, 51.37185635149854, 62.61220023323134 
129.79863546946794, 6.69590784392307, 22.69093667420128, 90.00134319782495, 51.510976451760584, 62.61066679315231 
128.90958281373773, 6.974146387338855, 22.69077178942069, 89.28664606909322, 51.65264214172319, 62.60910722414234 
128.02136244941528, 7.25661943310434, 22.69059768363586, 88.570999320251, 51.796834893314475, 62.60752187263285 
127.13394437259595, 7.543255575857225, 22.690414117997932, 87.85436775640562, 51.94353581998873, 62.60591109379891 
126.24729652031078, 7.833982754311338, 22.690220858929536, 87.13671509813332, 52.092725676073, 62.60427525160953 
125.36138477813185, 8.12872827226614, 22.690017678551154, 86.41800394645897, 52.2443848559476, 62.60261471887389 
124.47617298859308, 8.427418818479397, 22.689804355102122, 85.69819574673835, 52.398493393050096, 62.600929877283654 
123.59162296035139, 8.729980485378503, 22.689580673355977, 84.97725075139176, 52.555030958692086, 62.5992211174507 
122.70769447801494, 9.036338786589074, 22.68934642502929, 84.25512798143336, 52.71397686067789, 62.597488838940585 
121.82434531257029, 9.346418673261255, 22.689101409183742, 83.5317851867399, 52.875310041713426, 62.59573345030115 
120.94153123234113, 9.660144549177039, 22.688845432620752, 82.80717880499958, 53.03900907759338, 62.593955369086274 
120.05920601441728, 9.977440284623624, 22.688578310268078, 82.08126391927898, 53.20505217515426, 62.59215502187476 
119.17732145649461, 10.298229229020437, 22.68829986555807, 81.35399421414373, 53.37341716998028, 62.59033284428359 
118.29582738907197, 10.622434222289307, 22.688009930796888, 80.62532193026591, 53.54408152384871, 62.588489280975956 
117.41467168795481, 10.949977604959265, 22.68770834752432, 79.89519781744829, 53.717022321900465, 62.58662478566376 
116.5338002870197, 11.280781226999713, 22.6873949668636, 79.16357108599242, 53.8922162695214, 62.584739821104066 
115.6531571911997, 11.614766455377005, 22.687069649860845, 78.43038935633524, 54.06963968891896, 62.58283485908993 
114.77268448965356, 11.951854180331988, 22.686732267813724, 77.69559860687487, 54.24926851537839, 62.580910380434844 
113.89232236908936, 12.291964820377101, 22.686382702588634, 76.95914311990414, 54.43107829318138, 62.578966874951114 
113.01200912721602, 12.635018326013835, 22.68602084692636, 76.22096542556598, 54.61504417117047, 62.577004841421704 
112.13168118630388, 12.980934182172529, 22.685646604735414, 75.48100624374274, 54.80114089794022, 62.575024787565766 
111.25127310683934, 13.329631409378495, 22.685259891372926, 74.7392044237867, 54.989342816636785, 62.573027229997194 
110.37071760126602, 13.681028563649424, 22.68486063391258, 73.99549688199673, 55.17962385934551, 62.571012694176574 
109.48994554781002, 14.035043735130893, 22.68444877139925, 73.24981853674159, 55.37195754104599, 62.568981714356276 
108.60888600439307, 14.391594545478156, 22.68402425508995, 72.50210224112708, 55.56631695311255, 62.56693483351831 
107.72746622264494, 14.750598143993455, 22.68358704868089, 71.75227871310058, 55.76267475633746, 62.56487260330525 
106.84561166203129, 15.111971202529995, 22.683137128520077, 71.0002764628823, 55.96100317345281, 62.56279558394382 
105.96324600412214, 15.475629909174463, 22.68267448380546, 70.24602171760955, 56.161273981125795, 62.56070434416115 
105.08029116703081, 15.841489960721926, 22.68219911676803, 69.48943834307539, 56.36345850140127, 62.55859946109378 
