# MEX_intpoint_lon [deg], MEX_intpoint_lat [deg], MEX_intpoint_angle [deg], TGO_intpoint_lon [deg], TGO_intpoint_lat [deg], TGO_intpoint_angle [deg] 
-104.8167427906339, 20.62067737120202, 22.829096233899474, -179.8360543271966, 58.791934729520925, 62.53625516583672 
-105.70951504063453, 20.2268283768313, 22.829743759078486, 179.3843823673555, 58.5612851777134, 62.53856115523235 
-106.60057741627784, 19.83412567847728, 22.8303791901408, 178.60821455801135, 58.33222891193321, 62.540860937783485 
-107.49003190630954, 19.44266155823041, 22.831002348009676, 177.83532881173483, 58.104800919417784, 62.543153817559904 
-108.37797885273528, 19.052527613451627, 22.831613068252974, 177.06561546036167, 57.87903558770563, 62.54543910577547 
-109.26451693148913, 18.66381477955878, 22.832211201102687, 176.2989684637517, 57.65496672264129, 62.54771612098123 
-110.14974313423367, 18.276613351810198, 22.832796611456708, 175.5352852784576, 57.43262756533058, 62.54998418925008 
-111.0337527511474, 17.891013006053527, 22.833369178862995, 174.77446673169376, 57.212050808098205, 62.55224264435319 
-111.91663935456701, 17.507102818409358, 22.83392879748623, 174.0164169003915, 56.99326860949851, 62.55449082792805 
-112.79849478336178, 17.124971283861974, 22.8344753760569, 173.26104299513565, 56.77631260842627, 62.55672808963804 
-113.6794091279286, 16.744706333730452, 22.835008837803098, 172.50825524878087, 56.56121393737282, 62.558953787323674 
-114.55947071570539, 16.366395351995926, 22.83552912036509, 171.75796680955366, 56.348003234870134, 62.56116728714563 
-115.43876609711025, 15.990125190461844, 22.836036175692758, 171.0100936384517, 56.13671065716305, 62.56336796371927 
-116.3173800318238, 15.615982182725826, 22.83652996992618, 170.26455441075805, 55.927365889148234, 62.56555520024084 
-117.19539547534018, 15.244052156943152, 22.837010483259505, 169.52127042149513, 55.71999815461605, 62.567728388605644 
-118.07289356572154, 14.874420447363164, 22.837477709788267, 168.7801654946483, 55.5146362258299, 62.56988692951778 
-118.94995361049895, 14.507171904621398, 22.837931657340505, 168.041165895996, 55.31130843247587, 62.57203023259189 
-119.82665307367105, 14.142390904771274, 22.838372347291816, 167.3042002493889, 55.11004267001348, 62.57415771644671 
-120.70306756275976, 13.780161357040793, 22.838799814364684, 166.56919945632757, 54.91086640745741, 62.57626880879071 
-121.57927081588943, 13.420566710300504, 22.839214106412317, 165.8360966186918, 54.71380669461805, 62.5783629464998 
-122.45533468886434, 13.063689958230745, 22.839615284187428, 165.10482696448364, 54.51889016882754, 62.58043957568727 
-123.33132914222557, 12.709613643176874, 22.840003421096014, 164.37532777644847, 54.32614306117678, 62.58249815176599 
-124.2073222282762, 12.35841985868306, 22.840378602936898, 163.64753832344687, 54.13559120228754, 62.58453813950285 
-125.08338007806988, 12.010190250695828, 22.84074092762692, 162.92139979445253, 53.947260027642486, 62.58655901306611 
-125.95956688836525, 11.66500601743063, 22.841090504912543, 162.19685523505882, 53.761174582495286, 62.58856025606502 
-126.83594490855398, 11.3229479078954, 22.84142745606802, 161.4738494863806, 53.57735952638135, 62.59054136158243 
-127.71257442757799, 10.984096219066895, 22.8417519135807, 160.7523291262418, 53.39583913724955, 62.59250183220021 
-128.58951376085568, 10.648530791716995, 22.842064020823784, 160.03224241254566, 53.21663731523333, 62.594441180017895 
-129.46681923724466, 10.31633100488754, 22.842363931717006, 159.31353922872773, 53.03977758607993, 62.59635892666444 
-130.34454518607248, 9.98757576901419, 22.842651810375738, 158.59617103119598, 52.86528310425462, 62.59825460330338 
-131.22274392427394, 9.662343517701059, 22.84292783074893, 157.88009079866677, 52.693176655736806, 62.600127750631636 
-132.101465743677, 9.34071219815008, 22.84319217624641, 157.1652529833101, 52.52348066052358, 62.601977918872024 
-132.98075889848712, 9.02275926025051, 22.843445039356023, 156.45161346361922, 52.356217174856226, 62.6038046677596 
-133.86066959302119, 8.708561644336202, 22.843686621251113, 155.73912949892602, 52.19140789318388, 62.605607566522174 
-134.74124196975015, 8.398195767620088, 22.84391713138891, 155.02775968548457, 52.029074149878575, 62.60738619385531 
-135.6225180977122, 8.091737509317507, 22.844136787100236, 154.31746391405062, 51.86923692071483, 62.60914013789143 
-136.50453796136293, 7.789262194472121, 22.84434581317132, 153.60820332888633, 51.71191682412669, 62.61086899616404 
-137.3873394499324, 7.490844576500587, 22.844544441417934, 152.89994028812404, 51.55713412225463, 62.61257237556648 
-138.2709583473643, 7.196558818474401, 22.84473291025275, 152.19263832542447, 51.404908721794015, 62.61424989230607 
-139.15542832291393, 6.906478473159554, 22.84491146424621, 151.48626211286847, 51.25526017465663, 62.61590117185354 
-140.04078092248562, 6.620676461837828, 22.845080353681706, 150.78077742502438, 51.10820767845623, 62.6175258488879 
-140.9270455607944, 6.339225051935227, 22.845239834105506, 150.07615110413388, 50.9637700768286, 62.619123567237125 
-141.8142495144362, 6.062195833486623, 22.845390165872132, 149.37235102636424, 50.82196585959639, 62.620693979814924 
-142.70241791595686, 5.789659694467778, 22.845531613685615, 148.66934606907492, 50.682813162788534, 62.62223674855364 
-143.5915737490085, 5.521686795029068, 22.845664446137526, 147.96710607905027, 50.546329768523634, 62.62375154433362 
-144.4817378446858, 5.258346540667822, 22.845788935242048, 147.26560184165103, 50.412533104766524, 62.625238046909374 
-145.3729288791352, 4.9997075543794836, 22.845905355968956, 146.56480505084107, 50.28144024496682, 62.62669594483241 
-146.26516337252912, 4.745837647830202, 22.846013985775024, 145.8646882800455, 50.15306790758789, 62.62812493537156 
-147.15845568950064, 4.496803791596849, 22.84611510413442, 145.16522495380016, 50.02743245553469, 62.62952472443037 
-148.05281804113096, 4.2526720845232795, 22.84620899206887, 144.46638932015347, 49.904549895488145, 62.63089502646234 
-148.94826048858297, 4.013507722244464, 22.84629593167799, 143.76815642378293, 49.784435877153996, 62.63223556438401 
-149.8447909484731, 3.7793749649333814, 22.84637620567061, 143.0705020797916, 49.667105692433424, 62.63354606948604 
-150.74241520007115, 3.5503371043282166, 22.846450096897605, 142.37340284814917, 49.55257427452274, 62.63482628134264 
-151.64113689441695, 3.3264564301003947, 22.846517887886794, 141.67683600874676, 49.44085619694901, 62.636075947719775 
-152.54095756543936, 3.107794195626877, 22.846579860380682, 140.98077953703276, 49.331965672548534, 62.63729482448192 
-153.44187664316047, 2.8944105832327622, 22.846636294877477, 140.28521208020135, 49.22591655239443, 62.63848267549806 
-154.343891469064, 2.6863646689730194, 22.846687470176114, 139.59011293390455, 49.122722324679906, 62.639639272546816 
-155.24699731370353, 2.483714387024658, 22.846733662925825, 138.89546201946067, 49.02239611356321, 62.64076439522136 
-156.15118739662083, 2.2865164937631017, 22.846775147180868, 138.20123986153374, 48.924950677980085, 62.641857830833665 
-157.05645290864035, 2.09482653159896, 22.84681219396097, 137.50742756625857, 48.83039841042965, 62.642919374319085 
-157.96278303659963, 1.908698792653224, 22.84684507081817, 136.8140067997882, 48.738751335739025, 62.64394882814099 
-158.8701649905701, 1.7281862823512735, 22.846874041410416, 136.12095976724066, 48.65002110981216, 62.64494600219574 
-159.77858403361597, 1.5533406830174796, 22.846899365082777, 135.42826919202386, 48.56421901836804, 62.645910713718536 
-160.6880235141322, 1.3842123175541285, 22.846921296456546, 134.73591829551734, 48.48135597567317, 62.64684278718983 
-161.59846490079457, 1.220850113289355, 22.846940085026954, 134.04389077709152, 48.401442523273055, 62.64774205424306 
-162.50988782014846, 1.0633015660802867, 22.846955974769955, 133.35217079444556, 48.32448882872769, 62.64860835357337 
-163.42227009685348, 0.9116127047580851, 22.84696920375859, 132.66074294424516, 48.25050468435505, 62.64944153084825 
-164.33558779659364, 0.7658280560023507, 22.846980003789522, 131.96959224304342, 48.17949950598706, 62.65024143861915 
-165.24981527165355, 0.6259906097327742, 22.846988600020122, 131.27870410846805, 48.111482331742394, 62.65100793623576 
-166.1649252091525, 0.49214178510564077, 22.84699521061664, 130.58806434065917, 48.04646182081957, 62.651740889761626 
-167.08088868191868, 0.3643213972027059, 22.847000046414006, 129.89765910394203, 47.98444625231465, 62.65244017189258 
-167.99767520197688, 0.24256762449942398, 22.847003310587546, 129.20747490872034, 47.925443524066765, 62.65310566187704 
-168.91525277661307, 0.12691697719839903, 22.84700519833716, 128.51749859357656, 47.869461151535205, 62.653737245439245 
-169.83358796697001, 0.01740426651285114, 22.847005896584445, 127.82771730756487, 47.816506266711166, 62.654334814705145 
-170.75264594911866, -0.08593742501671335, 22.847005583682908, 127.13811849268473, 47.76658561706752, 62.65489826813114 
-171.67239057753932, -0.18307677209135464, 22.847004429142007, 126.44868986652203, 47.71970556454927, 62.65542751043575 
-172.59278445093932, -0.27398423402895417, 22.847002593365097, 125.75941940504637, 47.675872084607896, 62.65592245253482 
-173.51378898032206, -0.3586320808693544, 22.84700022740175, 125.07029532555268, 47.635090765281866, 62.656383011479534 
-174.4353644592148, -0.43699441813571066, 22.846997472714804, 124.38130606973606, 47.59736680632607, 62.65680911039832 
-175.35747013595352, -0.5090472101814916, 22.846994460962375, 123.69244028688944, 47.562705018392336, 62.65720067844213 
-176.28006428791363, -0.5747683020561635, 22.84699131379517, 123.00368681721348, 47.53110982226332, 62.657557650733324 
-177.20310429756825, -0.6341374398262315, 22.84698814266935, 122.31503467522862, 47.502585248141706, 62.65787996831853 
-178.12654673024724, -0.6871362892924816, 22.846985048675265, 121.62647303327986, 47.47713493499655, 62.65816757812525 
-179.05034741346287, -0.7337484530485534, 22.846982122382126, 120.93799120512466, 47.45476212996844, 62.65842043292244 
-179.97446151766195, -0.7739594858304346, 22.846979443698974, 120.24957862959452, 47.43546968783509, 62.658638491285096 
179.1011563617437, -0.8077569081115225, 22.84697708175209, 119.56122485432174, 47.41926007053856, 62.65882171756323 
178.1765521212199, -0.8351302179026293, 22.846975094779, 118.87291951952231, 47.40613534677545, 62.658970081854555 
177.2517720649845, -0.8560709007217128, 22.846973530039133, 118.18465234182615, 47.39609719165093, 62.65908355998195 
176.326862820075, -0.8705724377033891, 22.846972423741448, 117.49641309814659, 47.38914688639762, 62.6591621334747 
175.40187125077597, -0.8786303118238693, 22.846971800988964, 116.80819160958056, 47.385285318159944, 62.65920578955451 
174.47684437257314, -0.880242012222455, 22.84697167574026, 116.11997772533101, 47.38451297984446, 62.65921452112543 
173.55182926580693, -0.875407036606665, 22.846972050788114, 115.43176130664393, 47.386829970036686, 62.65918832676858 
172.626872989196, -0.8641268917335952, 22.84697291775525, 114.7435322107511, 47.39223599298435, 62.65912721074095 
171.70202249340397, -0.8464050919661325, 22.846974257107124, 114.05528027481105, 47.400730358647365, 62.659031182978715 
170.77732453482193, -0.8222471559084076, 22.846976038181882, 113.36699529983979, 47.41231198281439, 62.658900259104854 
169.85282558973822, -0.7916606011305194, 22.84697821923732, 112.67866703462319, 47.426979387285456, 62.658734460441245 
168.92857176906455, -0.7546549369986894, 22.846980747514866, 111.99028515960275, 47.444730700120516, 62.65853381402502 
168.00460873378677, -0.7112416556321834, 22.8469835593204, 111.30183927072657, 47.46556365595296, 62.65829835262919 
167.08098161130357, -0.6614342210143864, 22.84698658012197, 110.61331886325708, 47.48947559636773, 62.658028114787626 
166.15773491281283, -0.6052480562905267, 22.846989724664084, 109.92471331552669, 47.5164634703427, 62.657723144824175 
165.23491245190166, -0.5427005292900238, 22.84699289709858, 109.23601187263336, 47.54652383475243, 62.657383492885934 
164.31255726448964, -0.47381093631645743, 22.84699599113179, 108.5472036300663, 47.57965285493301, 62.657009214980626 
163.3907115302691, -0.39860048425306777, 22.846998890187848, 107.85827751725357, 47.61584630530645, 62.65660037301817 
162.46941649578028, -0.3170922710364985, 22.847001467587983, 107.16922228102155, 47.65509957006315, 62.656157034855724 
161.5487123992515, -0.2293112645557488, 22.84700358674543, 106.48002646895736, 47.697407643900625, 62.655679274346994 
160.628638397327, -0.13528428003771822, 22.847005101375775, 105.79067841266371, 47.74276513281651, 62.6551671713951 
159.7092324937972, -0.035039955984382254, 22.847005855722518, 105.10116621089658, 47.791166254953914, 62.654620812009014 
158.79053147043828, 0.07139127126943476, 22.84700568479739, 104.4114777125748, 47.84260484149672, 62.654040288363674 
157.87257082005766, 0.18397719430568657, 22.84700441463526, 103.72160049965086, 47.89707433761248, 62.65342569886321 
156.95538468183466, 0.3026838626048561, 22.84700186256323, 103.03152186983164, 47.95456780344036, 62.65277714820784 
156.0390057790355, 0.42747561168211856, 22.84699783748348, 102.3412288191372, 48.0150779151214, 62.65209474746328 
155.1234653591723, 0.5583150932975378, 22.84699214016973, 101.65070802428582, 48.07859696586811, 62.6513786141338 
154.2087931366665, 0.6951633066581058, 22.846984563576576, 100.95994582489206, 48.14511686707052, 62.65062887223749 
153.29501723806771, 0.8379796305275874, 22.84697489316165, 100.26892820546537, 48.21462914943517, 62.64984565238462 
152.38216414986883, 0.9867218561587957, 22.846962907219865, 99.57764077719489, 48.28712496415408, 62.64902909185811 
151.4702586689489, 1.141346220961783, 22.84694837722954, 98.88606875950667, 48.362595084099745, 62.64817933469681 
150.5593238556667, 1.3018074428207351, 22.84693106820977, 98.19419696137794, 48.44102990504265, 62.64729653178036 
149.64938098961673, 1.468058754971932, 22.846910739088738, 97.50200976239333, 48.52241944688746, 62.64638084091632 
148.7404495280527, 1.640051941354949, 22.84688714308228, 96.80949109352622, 48.606753354923775, 62.645432426929126 
147.83254706697238, 1.8177373723494996, 22.84686002808241, 96.11662441762886, 48.694020901087114, 62.64445146175032 
146.92568930485106, 2.001064040810666, 22.846829137055103, 95.42339270961325, 48.78421098522619, 62.64343812451049 
146.019890009001, 2.189979598316203, 22.84679420844698, 94.72977843630395, 48.87731213637132, 62.64239260163208 
145.11516098452796, 2.3844303915402776, 22.846754976600224, 94.03576353594404, 48.97331251399979, 62.641315086923406 
144.21151204584666, 2.5843614986695096, 22.8467111721752, 93.34132939733352, 49.07219990929296, 62.64020578167325 
143.3089509907118, 2.7897167657785156, 22.84666252258036, 92.6464568385793, 49.17396174638019, 62.63906489474594 
142.40748357671245, 3.0004388430838453, 22.846608752408656, 91.95112608543418, 49.27858508356425, 62.63789264267702 
141.50711350017377, 3.2164692209970362, 22.84654958388, 91.25531674920228, 49.38605661452289, 62.636689249768615 
140.6078423774022, 3.4377482658997303, 22.84648473728922, 90.55900780418594, 49.49636266948079, 62.635454948185064 
139.70966972820625, 3.664215255565763, 22.846413931458816, 89.86217756464967, 49.60948921634631, 62.634189978047836 
138.81259296161986, 3.8958084141578015, 22.846336884196045, 89.16480366127345, 49.725421861806744, 62.63289458752999 
137.91660736375093, 4.132464946728289, 22.846253312753575, 88.46686301706885, 49.84414585237611, 62.631569032949855 
137.02170608767412, 4.374121073157391, 22.846162934293304, 87.76833182272803, 49.965646075389, 62.6302135788636 
136.12788014528343, 4.620712061463131, 22.84606546635246, 87.0691855113756, 50.08990705993368, 62.62882849815641 
135.23511840101747, 4.872172260421719, 22.84596062731173, 86.36939873269174, 50.21691297771786, 62.62741407213228 
134.34340756736827, 5.128435131439075, 22.84584813686444, 85.66894532637276, 50.346647643859896, 62.62597059060192 
133.4527322020823, 5.389433279617257, 22.845727716486376, 84.96779829489516, 50.47909451759806, 62.624498351968704 
132.56307470696095, 5.655098483962677, 22.845599089905633, 84.26592977554563, 50.614236702910496, 62.622997663312276 
131.67441532816795, 5.925361726685614, 22.845461983571713, 83.56331101168036, 50.75205694903775, 62.62146884046987 
130.78673215794927, 6.200153221543976, 22.8453161271235, 82.85991232317218, 50.89253765090012, 62.61991220811459 
129.90000113767212, 6.479402441186673, 22.84516125385524, 82.15570307600545, 51.035660849401104, 62.618328099831025 
129.01419606209004, 6.763038143455414, 22.844997101180095, 81.45065165097371, 51.18140823160865, 62.61671685818761 
128.12928858474163, 7.0509883966062805, 22.844823411090566, 80.74472541143534, 51.32976113080481, 62.61507883480527 
127.24524822439217, 7.343180603415482, 22.84463993061529, 80.03789067007929, 51.480700526394905, 62.61341439042288 
126.3620423724285, 7.639541524136624, 22.844446412271378, 79.33011265465055, 51.634207043666294, 62.61172389495844 
125.47963630112031, 7.939997298279174, 22.844242614512027, 78.6213554725837, 51.79026095338683, 62.61000772756631 
124.5979931726623, 8.244473465181155, 22.844028302168507, 77.91158207448944, 51.9488421712327, 62.608266276690074 
123.7170740489159, 8.552894983351065, 22.843803246886157, 77.20075421643723, 52.10993025703487, 62.60649994011089 
122.83683790177056, 8.86518624855719, 22.843567227553685, 76.48883242097396, 52.273504413832754, 62.60470912499098 
121.95724162404898, 9.18127111064436, 22.84332003072526, 75.77577593681653, 52.439543486723835, 62.6028942479122 
121.07824004088418, 9.501072889061271, 22.843061451034842, 75.06154269715223, 52.60802596149689, 62.60105573490933 
120.19978592149974, 9.824514387083083, 22.842791291602204, 74.34608927647952, 52.77892996303631, 62.599194021498164 
119.32182999132873, 10.151517904716924, 22.84250936443002, 73.62937084591663, 52.95223325348448, 62.59730955269768 
118.44432094441166, 10.482005250279569, 22.842215490791673, 72.91134112690392, 53.12791323014842, 62.595402783046694 
117.56720545601783, 10.815897750638747, 22.841909501609074, 72.19195234322156, 53.30594692313667, 62.59347417661444 
116.69042819543918, 11.153116260111814, 22.84159123782009, 71.47115517124065, 53.486310992711395, 62.59152420700492 
115.81393183891149, 11.49358116801679, 22.841260550735107, 70.74889868832267, 53.668981726340164, 62.58955335735492 
114.93765708262193, 11.837212404873206, 22.840917302382184, 70.02513031927748, 53.853935035431476, 62.58756212032564 
114.0615426557684, 12.183929447251414, 22.840561365840383, 69.29979578078726, 54.041146451736644, 62.58555099808746 
113.18552533364063, 12.533651321271071, 22.8401926255608, 68.57283902369804, 54.230591123400856, 62.58352050229799 
112.30953995069989, 12.88629660475065, 22.83981097767489, 67.84420217307782, 54.42224381064427, 62.581471154072965 
111.43351941363912, 13.241783428011866, 22.83941633028962, 67.11382546593448, 54.616078881054186, 62.57940348395023 
110.55739471441207, 13.60002947334373, 22.83900860376911, 66.38164718648262, 54.812070304467646, 62.57731803184626 
109.68109494322646, 13.960951973132895, 22.838587731002324, 65.64760359884347, 55.01019164742313, 62.57521534700528 
108.80454730150166, 14.324467706668088, 22.838153657656456, 64.91162887705717, 55.21041606715901, 62.57309598794096 
107.92767711479989, 14.690492995627483, 22.837706342415697, 64.17365503228116, 55.41271630513505, 62.57096052237033 
107.05040784574496, 15.058943698259739, 22.837245757204947, 63.433611837043564, 55.61706468005242, 62.568809527139926 
106.1726611069513, 15.42973520226996, 22.836771887398278, 62.69142674641453, 55.82343308034592, 62.56664358814434 
105.29435667399201, 15.802782416423833, 22.836284732011777, 61.94702481595297, 56.03179295612139, 62.5644633002364 
