# MEX_intpoint_lon [deg], MEX_intpoint_lat [deg], MEX_intpoint_angle [deg], TGO_intpoint_lon [deg], TGO_intpoint_lat [deg], TGO_intpoint_angle [deg] 
-104.45423877758857, 20.539685725278442, 22.606277696863675, -166.50976078194614, 59.10681455952025, 62.52994578584789 
-105.35398003573519, 20.157171150401965, 22.606897953691174, -167.30673948237174, 58.88534474535421, 62.53214627460636 
-106.25201566277936, 19.775737697789314, 22.607506908642172, -168.10017078058257, 58.66536463256316, 62.53434111327757 
-107.1484429370852, 19.39547655465527, 22.608104389746977, -168.89016825058843, 58.446909670836256, 62.53652963722661 
-108.04335763935856, 19.016478231629634, 22.608690238719838, -169.6768418685813, 58.23001468327921, 62.53871118830389 
-108.936854028913, 18.638832582794585, 22.609264310978563, -170.46029813565164, 58.01471388477342, 62.540885115030804 
-109.82902482123073, 18.262628824850946, 22.609826475647484, -171.24064019608835, 57.80104089932747, 62.54305077277767 
-110.71996116668028, 17.88795555537869, 22.61037661554403, -172.01796795139725, 57.5890287764687, 62.54520752393395 
-111.60975263026498, 17.514900770158512, 22.6109146271489, -172.79237817017494, 57.37871000672011, 62.54735473807111 
-112.4984871722836, 17.143551879524377, 22.61144042055981, -173.56396459397337, 57.17011653620559, 62.549491792097726 
-113.38625112979614, 16.773995723717846, 22.611953919429112, -174.3328180392909, 56.963279780424486, 62.55161807040712 
-114.2731291987947, 16.406318587217864, 22.612455060885274, -175.09902649582403, 56.758230637234945, 62.55373296501729 
-115.15920441698995, 16.040606212020727, 22.61294379543836, -175.86267522111118, 56.55499949908309, 62.55583587570319 
-116.04455814713113, 15.67694380984688, 22.613420086869755, -176.6238468317, 56.35361626451354, 62.55792621012178 
-116.92927006078625, 15.315416073252981, 22.6138839121063, -177.3826213909649, 56.15411034899527, 62.5600033839292 
-117.8134181225173, 14.956107185628731, 22.61433526107889, -178.13907649370017, 55.95651069509495, 62.562066820890756 
-118.69707857439306, 14.59910083006004, 22.61477413656599, -178.89328734761074, 55.760845782028646, 62.56411595298323 
-119.58032592078946, 14.24448019704089, 22.6152005540221, -179.6453268518203, 55.567143634620976, 62.56615022049013 
-120.46323291343538, 13.8923279910184, 22.615614541391533, 179.60473432748876, 55.375431831699906, 62.56816907208945 
-121.34587053666857, 13.542726435756176, 22.61601613890777, 178.85682768418891, 55.18573751395359, 62.57017196493427 
-122.2283079928733, 13.195757278503184, 22.61640539887855, 178.11088680196715, 54.9980873912749, 62.57215836472612 
-123.11061268807882, 12.851501792956133, 22.616782385457263, 177.36684728662337, 54.812507749617794, 62.574127745781595 
-123.99285021770288, 12.510040781005296, 22.61714717440068, 176.6246467008055, 54.629024457388525, 62.57607959109177 
-124.87508435243323, 12.171454573254442, 22.61749985281357, 175.88422450108138, 54.4476629713942, 62.57801339237474 
-125.75737702424361, 11.83582302830778, 22.617840518880406, 175.1455219772524, 54.26844834236929, 62.579928650121836 
-126.63978831254887, 11.50322553081755, 22.61816928158464, 174.408482193815, 54.09140522010076, 62.58182487363663 
-127.52237643050887, 11.173740988287772, 22.618486260415892, 173.67304993348137, 53.916557858170705, 62.583701581068034 
-128.40519771149644, 10.847447826631202, 22.61879158506547, 172.93917164267262, 53.743930118335264, 62.58555829943665 
-129.28830659575016, 10.524423984477943, 22.619085395110506, 172.20679537890118, 53.57354547455723, 62.58739456465526 
-130.1717556172387, 10.204746906236018, 22.619367839687403, 171.4758707599626, 53.40542701670948, 62.58920992154291 
-131.0555953907676, 9.888493533905741, 22.61963907715475, 170.74634891485894, 53.23959745396511, 62.59100392383325 
-131.93987459936514, 9.575740297651604, 22.61989927474631, 170.0181824363803, 53.07607911789022, 62.59277613417724 
-132.82463998198796, 9.266563105137124, 22.620148608214553, 169.29132533527198, 52.914893965253725, 62.59452612413998 
-133.70993632159272, 8.961037329630146, 22.620387261465144, 168.56573299591943, 52.75606358056897, 62.5962534741924 
-134.5958064336227, 8.659237796887963, 22.620615426182876, 167.84136213348432, 52.599609178380476, 62.597957773697495 
-135.4822911549647, 8.361238770833518, 22.620833301449633, 167.1181707524285, 52.44555160530902, 62.59963862089152 
-136.36942933343283, 8.067113938036407, 22.621041093354794, 166.3961181063643, 52.293911341867926, 62.601295622860384 
-137.25725781784172, 7.7769363910142655, 22.62123901459862, 165.67516465917345, 52.144708504062486, 62.60292839551121 
-138.14581144873364, 7.490778610372606, 22.621427284089155, 164.95527204733725, 51.997962844784254, 62.60453656353949 
-139.0351230498278, 7.2087124458031395, 22.621606126533283, 164.23640304342467, 51.85369375501141, 62.60611976039169 
-139.92522342026274, 6.930809095963586, 22.62177577202223, 163.51852152068633, 51.71192026482629, 62.60767762822406 
-140.8161413277053, 6.657139087263698, 22.62193645561225, 162.80159241870388, 51.572661044260016, 62.60920981785709 
-141.70790350240205, 6.387772251585373, 22.622088416901107, 162.0855817100481, 51.435934403974784, 62.61071598872652 
-142.6005346322504, 6.122777702966854, 22.62223189960072, 161.37045636789892, 51.30175829579322, 62.61219580883088 
-143.4940573589698, 5.862223813283762, 22.622367151106587, 160.65618433458368, 51.17015031308418, 62.61364895467536 
-144.38849227545248, 5.606178186962349, 22.622494422064715, 159.94273449099148, 51.04112769101398, 62.61507511121277 
-145.28385792437592, 5.35470763476295, 22.62261396593642, 159.23007662682298, 50.914707306672064, 62.61647397178166 
-146.18017079815854, 5.107878146674469, 22.622726038561677, 158.5181814116369, 50.79090567907899, 62.617845238041596 
-147.07744534034194, 4.865754863963029, 22.62283089772159, 157.80702036665588, 50.66973896908529, 62.61918861990596 
-147.9756939484799, 4.628402050421174, 22.622928802700564, 157.09656583729625, 50.55122297916894, 62.62050383547253 
-148.87492697861717, 4.395883062866166, 22.623020013848613, 156.3867909663871, 50.43537315313884, 62.62179061095201 
-149.77515275143713, 4.168260320938921, 22.623104792144748, 155.6776696680461, 50.322204575751975, 62.62304868059461 
-150.6763775601574, 3.9455952762575897, 22.623183398761505, 154.96917660218043, 50.21173197225088, 62.62427778661505 
-151.57860568025004, 3.7279483809824825, 22.623256094631632, 154.26128714958304, 50.10396970782881, 62.62547767911608 
-152.48183938106126, 3.5153790558514166, 22.623323140017327, 153.55397738759464, 49.99893178702872, 62.62664811601098 
-153.38607893940116, 3.307945657747133, 22.623384794082458, 152.8472240663044, 49.896631853082816, 62.62778886294477 
-154.2913226551728, 3.1057054468608194, 22.623441314468664, 152.1410045852623, 49.797083187198666, 62.62889969321476 
-155.19756686910443, 2.9087145535177985, 22.623492956875584, 151.43529697067814, 49.70029870779799, 62.6299803876906 
-156.10480598264584, 2.7170279447338883, 22.62353997464591, 150.7300798530821, 49.60629096971377, 62.63103073473382 
-157.0130324800841, 2.5306993905727473, 22.62358261835581, 150.02533244542425, 49.51507216335143, 62.63205053011718 
-157.92223695292964, 2.3497814303764133, 22.623621135411224, 149.32103452159015, 49.42665411381928, 62.6330395769442 
-158.83240812661816, 2.1743253389429977, 22.623655769650576, 148.6171663953107, 49.34104828003373, 62.633997685568715 
-159.7435328895676, 2.00438109272693, 22.623686760954474, 147.91370889944662, 49.25826575380387, 62.63492467351502 
-160.6555963246235, 1.8399973361385378, 22.623714344862844, 147.21064336562662, 49.178317258900734, 62.6358203653985 
-161.56858174291924, 1.6812213480209093, 22.623738752200023, 146.50795160422126, 49.10121315011558, 62.63668459284705 
-162.48247072017088, 1.5280990083827497, 22.623760208708337, 145.80561588463348, 49.02696341231184, 62.63751719442367 
-163.39724313541913, 1.380674765466801, 22.623778934690655, 145.10361891588914, 48.955577659475004, 62.63831801555006 
-164.31287721222344, 1.238991603233636, 22.623795144662292, 144.40194382751025, 48.88706513376461, 62.63908690843139 
-165.2293495623045, 1.1030910093410389, 22.62380904701291, 143.70057415065472, 48.82143470457244, 62.63982373198311 
-166.14663523162525, 0.9730129436989172, 22.62382084367863, 142.99949379950797, 48.75869486759046, 62.64052835175881 
-167.0647077488907, 0.8487958076794044, 22.62383072982501, 142.29868705291065, 48.69885374389257, 62.64120063988041 
-167.98353917643888, 0.730476414061253, 22.623838893541134, 141.59813853620832, 48.64191907903329, 62.64184047497011 
-168.9031001634872, 0.6180899577865844, 22.623845515545383, 140.89783320331028, 48.58789824216703, 62.642447742084514 
-169.82336000169013, 0.5116699876069857, 22.623850768903093, 140.197756318943, 48.536798225190815, 62.64302233265115 
-170.74428668295423, 0.41124837869436853, 22.623854818756627, 139.49789344108612, 48.488625641913835, 62.643564144407314 
-171.66584695945033, 0.316855306290263, 22.623857822068185, 138.7982304035791, 48.443386727256325, 62.64407308134154 
-172.58800640575208, 0.22851922046517498, 22.623859927375605, 138.0987532988857, 48.40108733648087, 62.644549053637846 
-173.51072948302308, 0.14626682205723723, 22.623861274561612, 137.39944846100562, 48.36173294445823, 62.64499197762259 
-174.43397960516646, 0.07012303985675897, 22.623861994636727, 136.70030244852194, 48.32532864497049, 62.64540177571443 
-175.35771920684306, 0.00011100910042156431, 22.62386220953612, 136.00130202777365, 48.291879150053546, 62.6457783763775 
-176.281909813256, -0.0637479486644216, 22.6238620319308, 135.30243415614288, 48.26138878938104, 62.64612171407708 
-177.2065121115936, -0.12143434428819554, 22.62386156505322, 134.60368596544666, 48.2338615096917, 62.64643172923949 
-178.13148602401435, -0.17293053824699184, 22.62386090253765, 133.90504474542354, 48.20930087426179, 62.64670836821427 
-179.05679078205188, -0.2182207563403437, 22.623860128275524, 133.2064979273053, 48.1877100624243, 62.64695158324071 
-179.98238500231204, -0.2572911038136076, 22.623859316285827, 132.50803306746465, 48.169091869136466, 62.64716133241695 
179.0917732366719, -0.2901295778639998, 22.623858530600877, 131.80963783112924, 48.15344870459659, 62.64733757967355 
178.1657263165645, -0.3167260784937323, 22.623857825167597, 131.1112999761539, 48.140782593911624, 62.64748029474974 
177.23951700047675, -0.3370724176786148, 22.623857243764235, 130.41300733684125, 48.1310951768164, 62.64758945317426 
176.31318835348486, -0.35116232682511517, 22.623856819932946, 129.71474780780275, 48.12438770744515, 62.647665036248895 
175.3867836625697, -0.3589914624939794, 22.623856576928063, 129.0165093278515, 48.120661054156194, 62.64770703103662 
174.46034635612864, -0.36055741037348266, 22.62385652768029, 128.31827986391767, 48.11991569941038, 62.64771543035293 
173.53391992321488, -0.3558596874906373, 22.623856674776764, 127.6200473949791, 48.122151739703234, 62.64769023276116 
172.60754783265986, -0.3448997426537547, 22.62385701045707, 126.9217998959979, 48.12736888555148, 62.6476314425715 
171.68127345223422, -0.32768095512505624, 22.6238575166252, 126.22352532185512, 48.1355664615337, 62.64753906984397 
170.7551399680045, -0.3042086315273328, 22.623858164877447, 125.52521159127478, 48.14674340638499, 62.647413130394824 
169.8291903040392, -0.2744900009936821, 22.623858916546148, 124.82684657072916, 48.160898273145605, 62.64725364580708 
168.9034670426191, -0.23853420857478252, 22.62385972275931, 124.12841805831663, 48.17802922936279, 62.64706064344453 
167.97801234510237, -0.19635230692295874, 22.62386052451593, 123.42991376760371, 48.19813405734555, 62.64683415646956 
167.0528678735934, -0.14795724627768114, 22.62386125277703, 122.73132131142249, 48.22121015447134, 62.64657422386471 
166.12807471356018, -0.09336386278167305, 22.62386182857217, 122.03262818561483, 48.24725453354406, 62.646280890457675 
165.20367329754106, -0.03258886516190497, 22.62386216312136, 121.33382175271453, 48.27626382320194, 62.64595420694998 
164.27970333007747, 0.034349180185920515, 22.6238621579722, 120.63488922555796, 48.3082342683744, 62.64559422994929 
163.35620371400321, 0.10742986566611108, 22.6238617051521, 119.93581765081458, 48.34316173078648, 62.645201022004926 
162.43321247821567, 0.18663096045759303, 22.62386068733525, 119.23659389242731, 48.38104168950903, 62.644774651646884 
161.51076670704794, 0.27192842994290645, 22.623858978024273, 118.53720461495314, 48.42186924155342, 62.64431519342809 
160.58890247135452, 0.3632964565362856, 22.623856441746323, 117.8376362667945, 48.465639102508504, 62.64382272796993 
159.66765476141487, 0.46070746185209155, 22.623852934263088, 117.13787506331043, 48.51234560721811, 62.64329734201081 
158.7470574217541, 0.5641321301513377, 22.623848302794887, 116.43790696979745, 48.561982710496814, 62.642739128457606 
157.82714308796963, 0.6735394330011866, 22.62384238625808, 115.73771768432917, 48.61454398788176, 62.64214818644033 
156.90794312564668, 0.7888966550794544, 22.623835015515844, 115.03729262044321, 48.670022636417734, 62.64152462136901 
155.98948757143646, 0.9101694210535852, 22.623826013641814, 114.33661688966401, 48.7284114754735, 62.64086854499383 
155.0718050763626, 1.0373217234615464, 22.623815196196222, 113.63567528384921, 48.789702947585866, 62.64018007546727 
154.1549228514132, 1.170315951519892, 22.623802371514206, 112.93445225734733, 48.85388911932917, 62.639459337408944 
153.23886661546695, 1.3091129207829162, 22.623787341005997, 112.23293190895366, 48.92096168220664, 62.638706461972404 
152.32366054559375, 1.45367190357523, 22.62376989946839, 111.53109796365085, 48.990911953560676, 62.63792158691434 
151.40932722976171, 1.603950660119174, 22.623749835407253, 110.8289337541203, 49.063730877498415, 62.637104856665324 
150.4958876219732, 1.7599054702776524, 22.62372693137061, 110.12642220200966, 49.1394090258291, 62.63625642240256 
149.58336099984578, 1.9214911658325926, 22.623700964291732, 109.42354579894157, 49.21793659900954, 62.63537644212433 
148.67176492464432, 2.088661163218805, 22.623671705842057, 108.72028658724723, 49.29930342709366, 62.63446508072556 
147.7611152037637, 2.261367496633335, 22.62363892279309, 108.01662614040929, 49.38349897068209, 62.6335225100748 
146.85142585565325, 2.439560851440481, 22.62360237738722, 107.31254554319632, 49.47051232186758, 62.63254890909234 
145.94270907716682, 2.62319059779342, 22.623561827716575, 106.60802537147097, 49.56033220517191, 62.631544463829194 
145.03497521331542, 2.812204824393905, 22.623517028109728, 105.90304567165387, 49.652946978469444, 62.63050936754663 
144.12823272939224, 3.0065503723128533, 22.623467729525576, 105.19758593982314, 49.748344633892934, 62.62944382079648 
143.22248818543423, 3.2061728687955537, 22.62341367995382, 104.49162510043004, 49.84651279871624, 62.6283480315015 
142.31774621297683, 3.411016760976866, 22.623354624821772, 103.78514148460896, 49.94743873620927, 62.62722221503602 
141.41400949405474, 3.6210253494332987, 22.6232903074066, 103.07811280806045, 50.05110934645949, 62.62606659430656 
140.51127874239504, 3.836140821500634, 22.6232204692528, 102.37051614848406, 50.15751116715466, 62.62488139983194 
139.6095526867442, 4.056304284287736, 22.6231448505941, 101.66232792253703, 50.26663037432115, 62.62366686982316 
138.7088280562671, 4.281455797319261, 22.623063190779376, 100.95352386229413, 50.37845278301187, 62.622423250262415 
137.80909956795074, 4.51153440474208, 22.622975228701932, 100.24407899118229, 50.49296384793775, 62.62115079498134 
136.910359915944, 4.746478167032693, 22.62288070323172, 99.53396759936349, 50.61014866403654, 62.619849765738 
136.01259976275867, 4.986224192145252, 22.622779353649683, 98.82316321853673, 50.729991966972285, 62.61852043229265 
135.11580773225776, 5.230708666042204, 22.622670920083955, 98.11163859613056, 50.85247813355891, 62.61716307248204 
134.21997040435215, 5.479866882552255, 22.62255514394705, 97.39936566885432, 50.97759118210077, 62.61577797229169 
133.32507231132692, 5.733633272502892, 22.622431768373715, 96.68631553557691, 51.105314772643155, 62.61436542592666 
132.43109593571575, 5.991941432077407, 22.622300538658653, 95.97245842949881, 51.235632207125064, 62.61292573587959 
131.5380217096424, 6.254724150348871, 22.62216120269369, 95.25776368958303, 51.36852642942675, 62.61145921299693 
130.64582801554687, 6.52191343594649, 22.622013511403786, 94.54219973120777, 51.50398002530397, 62.60996617654206 
129.75449118821388, 6.7934405428120925, 22.621857219181265, 93.82573401600366, 51.64197522220057, 62.60844695425595 
128.8639855180222, 7.069235995007664, 22.62169208431764, 93.1083330208351, 51.78249388893114, 62.606901882414704 
127.97428325533345, 7.349229610536897, 22.62151786943271, 92.38996220588487, 51.92551753522449, 62.605331305883816 
127.08535461594073, 7.633350524147011, 22.62133434190003, 91.67058598179875, 52.07102731111908, 62.603735578169015 
126.19716778749782, 7.9215272090793025, 22.62114127426844, 90.9501676758451, 52.21900400620081, 62.602115061463486 
125.30968893685305, 8.213687497739466, 22.62093844467899, 90.22866949704273, 52.36942804867314, 62.60047012669139 
124.42288221821228, 8.509758601261582, 22.620725637276763, 89.50605250020823, 52.522279504249575, 62.59880115354703 
123.53670978205969, 8.809667127941637, 22.620502642616945, 88.78227654887179, 52.677538074857615, 62.597108530529994 
122.65113178476565, 9.113339100519383, 22.62026925806474, 88.05730027700848, 52.83518309714339, 62.595392654976 
121.76610639881625, 9.420699972289185, 22.620025288188604, 87.33108104953023, 52.99519354076531, 62.593653933082756 
120.88158982360036, 9.731674642023277, 22.619770545146007, 86.60357492148033, 53.15754800646487, 62.591892779931214 
119.99753629669512, 10.046187467692608, 22.619504849061663, 85.87473659587134, 53.322224723902366, 62.59010961950205 
119.11389810559292, 10.364162278972994, 22.61922802839732, 85.14451938010353, 53.48920154924443, 62.58830488468647 
118.23062559981915, 10.685522388526078, 22.6189399203128, 84.41287514089953, 53.658455962489995, 62.586479017292135 
117.34766720339155, 11.010190602046691, 22.618640371017882, 83.67975425768734, 53.829965064520934, 62.58463246804334 
116.46496942757885, 11.338089227070427, 22.618329236114285, 82.94510557436188, 54.00370557386237, 62.58276569657568 
115.58247688391954, 11.669140080536364, 22.61800638092762, 82.2088763493522, 54.179653823137905, 62.580879171424534 
114.70013229746678, 12.003264495102759, 22.61767168082866, 81.47101220391819, 54.357785755203764, 62.57897337000811 
113.81787652023098, 12.340383324214057, 22.617325021543532, 80.73145706859883, 54.538076918945045, 62.57704877860387 
112.93564854479624, 12.680416945920358, 22.616966299452383, 79.99015312772949, 54.720502464717335, 62.575105892318824 
112.05338551809241, 13.023285265451179, 22.616595421876305, 79.24704076194419, 54.905037139415086, 62.57314521505366 
111.17102275531029, 13.368907716547596, 22.61621230735179, 78.50205848857445, 55.09165528114833, 62.57116725945986 
110.28849375395302, 13.717203261557936, 22.615816885892627, 77.75514289985381, 55.280330813507646, 62.56917254689071 
109.40573020802306, 14.06809039030383, 22.61540909923883, 77.00622859883377, 55.47103723939709, 62.56716160734495 
108.52266202234952, 14.42148711772497, 22.61498890109204, 76.25524813291291, 55.66374763441311, 62.565134979404 
107.63921732706807, 14.777310980312045, 22.6145562573374, 75.50213192487915, 55.85843463974714, 62.56309321016197 
106.75532249227082, 15.135479031339107, 22.61411114625131, 74.74680820135958, 56.05507045458799, 62.56103685514865 
105.8709021428518, 15.495907834907603, 22.61365355869493, 73.98920291857148, 56.25362682799931, 62.55896647824534 
104.98587917357872, 15.858513458816084, 22.61318349829307, 73.22923968526229, 56.45407505024596, 62.55688265159328 
