# MEX_intpoint_lon [deg], MEX_intpoint_lat [deg], MEX_intpoint_angle [deg], TGO_intpoint_lon [deg], TGO_intpoint_lat [deg], TGO_intpoint_angle [deg] 
-104.63522436574934, 20.580498577559613, 22.716867232986104, -173.20819618099358, 58.985791651729194, 62.53248153921342 
-105.5315265924589, 20.192329665345987, 22.71750101494409, -173.99841019536018, 58.760710949232376, 62.534723309649785 
-106.42612036361382, 19.805274144850557, 22.71812310430924, -174.78513286166594, 58.53716059469499, 62.536959215972665 
-107.3191053099551, 19.419423766814408, 22.718733325583447, -175.56847784059045, 58.315175868707094, 62.539188581293416 
-108.21057949081793, 19.03486960088738, 22.719331517426358, -176.34855512351095, 58.09479143494191, 62.54141073546193 
-109.10063937251459, 18.651702057031773, 22.719917532674884, -177.12547116099333, 57.876041358427436, 62.543625015255145 
-109.98937980793622, 18.270010905990002, 22.72049123834568, -177.89932898643002, 57.65895912279063, 62.545830764557564 
-110.876894017232, 17.889885298782925, 22.721052515620453, -178.67022833499138, 57.4435776465244, 62.548027334534076 
-111.7632735694362, 17.511413785206923, 22.721601259814438, -179.43826575805684, 57.22992929832432, 62.55021408379475 
-112.64860836492231, 17.134684331300697, 22.7221373803279, 179.79646526671075, 57.01804591154033, 62.552390378551905 
-113.53298661857502, 16.759784335753924, 22.72266080058077, 179.03387422948768, 56.80795879778592, 62.55455559276893 
-114.41649484357814, 16.386800645232185, 22.723171457930828, 178.2738734864499, 56.5996987597457, 62.55670910830173 
-115.2992178357278, 16.015819568594132, 22.723669303575193, 177.51637816181855, 56.39329610321972, 62.55885031503181 
-116.18123865818816, 15.646926889978312, 22.72415430243554, 176.7613060536391, 56.1887806484416, 62.56097861099186 
-117.06263862661552, 15.28020788073892, 22.72462643302715, 176.00857754314805, 55.98618174070523, 62.56309340248349 
-117.94349729458554, 14.915747310210776, 22.725085687312014, 175.2581155075844, 55.78552826033324, 62.56519410418692 
-118.82389243926622, 14.553629455285735, 22.72553207053619, 174.50984523630746, 55.58684863201913, 62.567280139263474 
-119.70390004728708, 14.193938108783604, 22.72596560105166, 173.763694350087, 55.390170833572746, 62.569350939450004 
-120.58359430076288, 13.836756586602439, 22.72638631012302, 173.01959272343578, 55.19552240409835, 62.57140594514608 
-121.4630475634377, 13.48216773363398, 22.726794241719144, 172.27747240985835, 55.00293045163185, 62.57344460549332 
-122.34233036692169, 13.13025392843178, 22.72718945229027, 171.53726756989576, 54.812421660263865, 62.5754663784478 
-123.22151139700145, 12.781097086620354, 22.727572010530714, 170.79891440184787, 54.62402229677295, 62.57747073084481 
-124.10065748000976, 12.434778663035614, 22.727941997127598, 170.0623510750608, 54.43775821679273, 62.57945713845653 
-124.9798335692487, 12.091379652587587, 22.72829950449591, 169.32751766567046, 54.25365487053553, 62.581425086042664 
-125.8591027314658, 11.750980589838319, 22.72864463650032, 168.5943560946972, 54.0717373080939, 62.583374067394026 
-126.73852613338899, 11.413661547289022, 22.72897750816403, 167.86281006839067, 53.89203018434057, 62.585303585369374 
-127.61816302833313, 11.079502132371879, 22.729298245365182, 167.1328250207273, 53.71455776344648, 62.58721315192552 
-128.49807074289535, 10.74858148314382, 22.72960698452114, 166.4043480579677, 53.539343923035446, 62.58910228814081 
-129.37830466376332, 10.420978262680682, 22.7299038722611, 165.67732790518318, 53.36641215799355, 62.5909705242322 
-130.25891822466548, 10.096770652172232, 22.730189065087497, 164.95171485466602, 53.195785583950354, 62.592817399566194 
-131.13996289349802, 9.776036342719774, 22.730462729026623, 164.22746071613986, 53.02748694044808, 62.594642462663465 
-132.02148815966748, 9.458852525840332, 22.730725039268982, 163.50451876869124, 52.861538593814764, 62.59644527119763 
-132.90354152169448, 9.145295882682746, 22.73097617979975, 162.78284371434523, 52.69796253975619, 62.598225391988315 
-133.78616847512708, 8.835442571963268, 22.73121634302001, 162.06239163321246, 52.536780405681235, 62.59998240098847 
-134.66941250081766, 8.529368216630179, 22.731445729359034, 161.34311994013697, 52.378013452774134, 62.60171588326631 
-135.55331505362184, 8.227147889268785, 22.731664546878424, 160.6249873427773, 52.22168257782724, 62.60342543298208 
-136.43791555158086, 7.928856096260622, 22.73187301086829, 159.9079538010563, 52.067808314846886, 62.605110653359745 
-137.32325136565376, 7.634566760712751, 22.732071343436346, 159.19198048791765, 51.916410836444584, 62.60677115665363 
-138.20935781006855, 7.344353204175359, 22.732259773090135, 158.4770297513297, 51.76750995502541, 62.608406564110794 
-139.09626813336556, 7.058288127168138, 22.732438534313278, 157.76306507747933, 51.62112512378479, 62.61001650592849 
-139.98401351020772, 6.776443588538753, 22.73260786713599, 157.05005105510156, 51.47727543752478, 62.61160062120772 
-140.87262303403787, 6.498890983678642, 22.732768016700632, 156.33795334089257, 51.33597963330006, 62.613158557902516 
-141.762123710662, 6.225701021624559, 22.732919232822823, 155.62673862595577, 51.197256090904084, 62.61468997276546 
-142.65254045284271, 5.956943701076515, 22.733061769548645, 154.91637460323307, 51.06112283320489, 62.616194531289686 
-143.54389607598733, 5.692688285365638, 22.733195884708568, 154.20682993587533, 50.927597526340115, 62.61767190764726 
-144.436211295016, 5.433003276408175, 22.733321839468687, 153.4980742265079, 50.79669747978022, 62.61912178462435 
-145.3295047224977, 5.177956387684623, 22.733439897879823, 152.7900779873488, 50.668439646268716, 62.620543853553876 
-146.22379286814083, 4.927614516285869, 22.73355032642515, 152.08281261113996, 50.54284062164794, 62.62193781424473 
-147.11909013972746, 4.682043714070806, 22.733653393566822, 151.37625034285134, 50.41991664457842, 62.62330337490888 
-148.01540884557716, 4.441309157983056, 22.733749369292383, 150.67036425212262, 50.299683596159745, 62.62464025208613 
-148.91275919862915, 4.205475119576919, 22.733838524661323, 149.96512820640532, 50.1821569994607, 62.625948170566666 
-149.81114932222744, 3.97460493380572, 22.733921131352655, 149.26051684477287, 50.067352018965934, 62.627226863311755 
-150.7105852576939, 3.74876096712833, 22.733997461213775, 148.55650555236437, 49.9552834599464, 62.628476071372944 
-151.61107097377138, 3.5280045849925186, 22.73406778581156, 147.8530704354331, 49.84596576776028, 62.629695543809646 
-152.51260837801703, 3.3123961187562587, 22.734132375985993, 147.15018829696746, 49.7394130270913, 62.63088503760554 
-153.41519733022284, 3.101994832110985, 22.734191501407093, 146.44783661285808, 49.63563896113078, 62.632044317584146 
-154.3188356579365, 2.8968588870730008, 22.7342454301356, 145.74599350858196, 49.534656930709644, 62.63317315632341 
-155.22351917415313, 2.6970453096118887, 22.734294428188182, 145.04463773637877, 49.43647993338652, 62.634271334070036 
-156.12924169724278, 2.502609954986897, 22.734338759107466, 144.34374865289317, 49.341120602497604, 62.635338638653124 
-157.03599507317423, 2.313607472864547, 22.734378683537727, 143.64330619726022, 49.24859120617416, 62.63637486539795 
-157.94376920009054, 2.1300912722925887, 22.73441445880666, 142.94329086960994, 49.15890364633283, 62.63737981703978 
-158.8525520552862, 1.9521134866073644, 22.73444633851374, 142.24368370996964, 49.07206945764436, 62.63835330363787 
-159.76232972462884, 1.779724938353157, 22.73447457212587, 141.5444662775427, 48.98809980648547, 62.63929514249022 
-160.67308643446313, 1.6129751042937106, 22.73449940458069, 140.84562063034355, 48.90700548987894, 62.6402051580486 
-161.58480458602588, 1.4519120805971681, 22.734521075898204, 140.1471293051697, 48.828796934426755, 62.641083181835015 
-162.497464792396, 1.2965825482768751, 22.73453982080114, 139.44897529789228, 48.75348419524064, 62.64192905235884 
-163.41104591799345, 1.1470317389709928, 22.734555868344565, 138.75114204404696, 48.68107695487441, 62.64274261503527 
-164.32552512063506, 1.0033034011446536, 22.73456944155535, 138.0536133997088, 48.61158452226256, 62.64352372210566 
-165.240877896145, 0.8654397667984471, 22.734580757081773, 137.35637362263432, 48.54501583166879, 62.6442722325589 
-166.15707812551128, 0.7334815187671025, 22.734590024853862, 136.65940735365496, 48.48137944164873, 62.64498801205503 
-167.07409812456868, 0.6074677586917275, 22.734597447754947, 135.9626995983075, 48.42068353403015, 62.645670932850756 
-167.99190869618226, 0.4874359757487209, 22.734603221304724, 135.26623570868654, 48.362935912914665, 62.64632087372697 
-168.910479184894, 0.37342201621705834, 22.73460753335438, 134.57000136550505, 48.30814400370397, 62.64693771991883 
-169.829777533988, 0.26546005396492367, 22.73461056379412, 133.87398256035007, 48.256314852153956, 62.64752136304808 
-170.74977034492, 0.16358256193482537, 22.73461248427348, 133.17816557812046, 48.20745512345987, 62.64807170105808 
-171.6704229390477, 0.06782028470454186, 22.734613457934845, 132.4825369796345, 48.16157110137524, 62.64858863815163 
-172.59169942159014, -0.02179778780068924, 22.734613639160482, 131.78708358439502, 48.118668687367446, 62.64907208473157 
-173.513562747734, -0.10524444537210041, 22.73461317333345, 131.09179245350134, 48.078753399812534, 62.649521957344426 
-174.43597479079924, -0.1824942812872372, 22.73461219661263, 130.39665087269586, 48.04183037323163, 62.64993817862736 
-175.35889641236417, -0.2535237147187793, 22.734610835722364, 129.70164633553566, 48.00790435757118, 62.65032067725799 
-176.28228753424526, -0.3183110117185888, 22.73460920775673, 129.00676652667786, 47.97697971752931, 62.65066938790794 
-177.20610721221715, -0.37683630471688573, 22.734607419998888, 128.3119993052691, 47.94906043193011, 62.65098425119957 
-178.13031371135253, -0.4290816104804212, 22.734605569755722, 127.61733268842906, 47.92415009314768, 62.65126521366647 
-179.05486458285353, -0.4750308464773747, 22.73460374420791, 126.92275483481873, 47.9022519065815, 62.65151222771732 
-179.97971674224019, -0.5146698456013731, 22.734602020275695, 126.22825402828386, 47.8833686901848, 62.651725251603615 
179.09517345124362, -0.5479863692113424, 22.73460046450054, 125.53381866156475, 47.86750287404703, 62.65190424939118 
178.16985011415298, -0.574970118448834, 22.734599132942765, 124.83943722006305, 47.85465650003165, 62.652049190935394 
177.24435775744325, -0.5956127437992826, 22.734598071095366, 124.14509826565723, 47.84483122147032, 62.65216005186034 
176.31874120430402, -0.6099078528689253, 22.73459731381408, 123.4507904205579, 47.83802830291429, 62.652236813541826 
175.39304550738402, -0.6178510163540838, 22.73459688526385, 122.75650235119441, 47.834248619943494, 62.65227946309446 
174.46731586556635, -0.6194397721851365, 22.734596798881686, 122.06222275212447, 47.833492659034235, 62.652287993362584 
173.54159754045736, -0.6146736278327676, 22.734597057356012, 121.36794032995805, 47.835760517485475, 62.65226240291535 
172.61593577275227, -0.6035540607695269, 22.734597652622575, 120.6736437872879, 47.841051903404036, 62.65220269604561 
171.6903756986418, -0.5860845170854271, 22.73459856587677, 119.97932180661773, 47.84936613574891, 62.65210888277305 
170.76496226642382, -0.5622704082616222, 22.7345997676026, 119.28496303428005, 47.86070214443429, 62.651980978851036 
169.8397401534835, -0.5321191061118946, 22.734601217617975, 118.59055606433539, 47.87505847049125, 62.651819005777746 
168.91475368380233, -0.4956399359069908, 22.73460286513648, 117.89608942244418, 47.89243326628753, 62.65162299081115 
167.99004674615688, -0.45284416770230385, 22.734604648845437, 117.20155154970321, 47.91282429580494, 62.65139296698777 
167.06566271316126, -0.40374500589473766, 22.7346064970002, 116.5069307864381, 47.93622893497334, 62.65112897314562 
166.14164436130744, -0.3483575770395686, 22.7346083275345, 115.81221535594241, 47.96264417206079, 62.65083105395075 
165.21803379214998, -0.2866989159634832, 22.734610048186813, 115.11739334815552, 47.992066608118186, 62.65049925992785 
164.29487235477896, -0.21878795021433364, 22.734611556642403, 114.42245270326963, 48.02449245747763, 62.650133647494116 
163.372200569718, -0.14464548289343848, 22.734612740691, 113.72738119525684, 48.05991754830283, 62.64973427899746 
162.4500580543787, -0.06429417392010346, 22.734613478399897, 113.0321664153068, 48.09833732319026, 62.649301222757586 
161.5284834501961, 0.022241480217289875, 22.734613638302065, 112.3367957551655, 48.139746839819, 62.648834553111094 
160.60751435156237, 0.11493516816542088, 22.73461307959933, 111.64125639036487, 48.184140771647705, 62.64833435045972 
159.68718723666882, 0.21375878680358096, 22.734611652380025, 110.94553526333334, 48.23151340865656, 62.647800701321884 
158.76753740035832, 0.318682465669089, 22.734609197851068, 110.24961906637638, 48.28185865813192, 62.647233698387545 
157.84859888908147, 0.42967459264213714, 22.73460554858401, 109.55349422451647, 48.33517004549151, 62.646633440576046 
156.93040443804242, 0.546701840818486, 22.734600528774834, 108.85714687818096, 48.39144071514744, 62.64600003309686 
156.01298541061038, 0.6697291964959323, 22.734593954517077, 108.16056286572622, 48.45066343140456, 62.64533358751322 
155.0963717400651, 0.798719988198286, 22.734585634087974, 107.46372770578596, 48.51283057939114, 62.64463422180857 
154.18059187373441, 0.9336359166584137, 22.73457536824712, 106.76662657943095, 48.577934166019176, 62.64390206045511 
153.26567271957435, 1.0744370856802639, 22.73456295054749, 106.06924431212734, 48.64596582097073, 62.64313723448539 
152.35163959523183, 1.2210820337986714, 22.734548167658165, 105.37156535547973, 48.71691679770749, 62.64233988156542 
151.43851617962213, 1.3735277666542574, 22.734530799698447, 104.67357376874509, 48.79077797449974, 62.641510146070424 
150.5263244670436, 1.5317297900003304, 22.734510620582896, 103.97525320010233, 48.867539855471165, 62.64064817916225 
149.61508472384386, 1.6956421432580238, 22.734487398376945, 103.27658686766287, 48.94719257165578, 62.639754138868454 
148.70481544764294, 1.8652174335359226, 22.73446089566233, 102.5775575402055, 49.02972588206315, 62.63882819016313 
147.7955333291099, 2.0404068700302536, 22.73443086991221, 101.87814751761938, 49.11512917474719, 62.637870505049 
146.88725321628297, 2.2211602987223524, 22.73439707387524, 101.17833861103755, 49.20339146787513, 62.63688126264062 
145.9799880814131, 2.407426237290703, 22.73435925596816, 100.4781121226427, 49.29450141079138, 62.63586064924868 
145.07374899030555, 2.59915191015557, 22.734317160676355, 99.77744882512675, 49.38844728507216, 62.634808858465284 
144.16854507412526, 2.7962832835755695, 22.73427052896199, 99.07632894078377, 49.48521700556585, 62.63372609124937 
143.26438350362665, 2.9987651007167466, 22.73421909867891, 98.37473212021624, 49.58479812141404, 62.63261255601291 
142.36126946576024, 3.2065409166163317, 22.73416260499408, 97.67263742063277, 49.68717781704843, 62.63146846870731 
141.45920614260427, 3.4195531329649884, 22.734100780814746, 96.97002328371498, 49.79234291315771, 62.630294052909434 
140.5581946925631, 3.6377430326334586, 22.734033357220852, 96.26686751302975, 49.90027986761939, 62.629089539907845 
139.65823423376938, 3.8610508138713513, 22.733960063902252, 95.5631472509628, 50.01097477639041, 62.6278551687883 
138.75932182962214, 4.089415624108317, 22.733880629599913, 94.85883895514756, 50.124413374350944, 62.62659118651879 
137.8614524763895, 4.322775593289859, 22.733794782550728, 94.15391837436263, 50.24058103609497, 62.62529784803345 
136.96461909280015, 4.561067866682839, 22.733702250935224, 93.44836052387039, 50.35946277666151, 62.623975416315695 
136.06881251154533, 4.804228637088032, 22.73360276332767, 92.74213966016661, 50.48104325219972, 62.622624162479724 
135.1740214726104, 5.052193176399846, 22.73349604914791, 92.03522925511162, 50.60530676056127, 62.62124436585079 
134.28023261835162, 5.304895866455991, 22.733381839114397, 91.32760196941044, 50.732237241812896, 62.619836314043425 
133.38743049023415, 5.5622702291225545, 22.733259865697757, 90.61922962540905, 50.861818278661744, 62.618400303037916 
132.4955975271437, 5.824248955563024, 22.733129863574383, 89.91008317917176, 50.994033096786275, 62.616936637254405 
131.60471406518542, 6.090763934642074, 22.732991570079346, 89.20013269180384, 51.128864565064646, 62.61544562962477 
130.71475833888118, 6.361746280418404, 22.732844725658108, 88.48934729998086, 51.26629519569285, 62.61392760166149 
129.82570648367883, 6.637126358683168, 22.732689074316472, 87.77769518564597, 51.406307144183955, 62.61238288352418 
128.93753253968455, 6.916833812503798, 22.732524364068, 87.06514354483313, 51.54888220924021, 62.61081181408243 
128.05020845653314, 7.200797586735403, 22.7323503473786, 86.35165855557369, 51.69400183248866, 62.60921474097594 
127.16370409930981, 7.488945951465064, 22.732166781607372, 85.63720534484095, 51.84164709807147, 62.607592020670594 
126.27798725544018, 7.781206524356884, 22.73197342944341, 84.92174795448571, 51.99179873208105, 62.60594401851116 
125.39302364246676, 8.077506291868138, 22.73177005933776, 84.20524930611408, 52.144437101830185, 62.60427110876997 
124.50877691663133, 8.377771629309965, 22.731556445930206, 83.4876711648559, 52.29954221494694, 62.602573674691286 
123.62520868218735, 8.681928319728017, 22.73133237047004, 82.76897410197057, 52.4570937182833, 62.60085210853153 
122.742278501367, 8.989901571581518, 22.731097621230447, 82.04911745623444, 52.61707089662697, 62.59910681159474 
121.8599439049323, 9.301616035201086, 22.73085199391602, 81.32805929405164, 52.779452671204275, 62.59733819426345 
120.97816040324257, 9.616995818008528, 22.730595292062585, 80.60575636822736, 52.94421759796242, 62.595546676024476 
120.09688149777415, 9.935964498483534, 22.730327327429098, 79.88216407534068, 53.111343865618615, 62.593732685489634 
119.216058693032, 10.258445138864971, 22.73004792038093, 79.15723641165054, 53.2808092934629, 62.591896660411074 
118.33564150879782, 10.584360296576053, 22.729756900264107, 78.43092592746605, 53.45259132890141, 62.59003904769109 
117.4555774926627, 10.913632034364973, 22.72945410576995, 77.70318367990946, 53.626667044725515, 62.588160303386395 
116.57581223279742, 11.246181929154677, 22.72913938528961, 76.97395918399684, 53.8030131360927, 62.58626089270612 
115.69628937091886, 11.581931079596806, 22.728812597258184, 76.24320036195866, 53.98160591720323, 62.58434129000445 
114.81695061541437, 11.920800112327328, 22.728473610487722, 75.51085349071856, 54.162421317657106, 62.58240197876628 
113.93773575459339, 12.262709186922436, 22.728122304488828, 74.77686314744652, 54.34543487847408, 62.58044345158721 
113.05858267003917, 12.607577999555545, 22.727758569780384, 74.04117215309763, 54.5306217477597, 62.57846621014661 
112.17942735003993, 12.955325785357267, 22.727382308186964, 73.30372151384523, 54.71795667599864, 62.57647076517424 
111.30020390308434, 13.305871319482351, 22.72699343312357, 72.56445036031305, 54.907414010956515, 62.57445763641004 
110.42084457141236, 13.659132916888469, 22.726591869867214, 71.82329588450703, 55.09896769216986, 62.572427352557035 
109.54127974461835, 14.015028430833642, 22.726177555815056, 71.08019327434445, 55.292591245003614, 62.57038045122728 
108.66143797330975, 14.373475250100329, 22.725750440728795, 70.33507564567248, 55.48825777425367, 62.56831747888041 
107.78124598283156, 14.734390294955356, 22.725310486964705, 69.58787397166614, 55.68593995727187, 62.566238990755316 
106.90062868707278, 15.097690011856741, 22.724857669689424, 68.83851700948985, 55.88561003658901, 62.5641455507942 
106.01950920237891, 15.463290366919054, 22.724391977080685, 68.0869312241038, 56.087239812010445, 62.56203773155936 
105.1378088616005, 15.831106838151053, 22.72391341051317, 67.33304070909097, 56.29080063215794, 62.5599161141423 
