# MEX_intpoint_lon [deg], MEX_intpoint_lat [deg], MEX_intpoint_angle [deg], TGO_intpoint_lon [deg], TGO_intpoint_lat [deg], TGO_intpoint_angle [deg] 
-104.6862156877328, 20.59186472526583, 22.748264498087497, -175.08542787930952, 58.938582489739154, 62.53341796151213 
-105.58153439189672, 20.202100873845307, 22.748902123172535, -175.8730282673063, 58.71212221630279, 62.53567557696479 
-106.4751440964748, 19.81345960425623, 22.74952794383965, -176.65715998654827, 58.48720785629136, 62.53792724485184 
-107.36714509494065, 19.42603281997557, 22.750141783589335, -177.43793668260975, 58.2638746212064, 62.540172283584056 
-108.25763608833167, 19.0399117422757, 22.75074348021543, -178.2154683063839, 58.04215710963891, 62.54241001840951 
-109.1467141642577, 18.65518693201541, 22.751332885824645, -178.98986124470952, 57.82208932548984, 62.54463978160317 
-110.03447477710505, 18.27194831047628, 22.751909866838822, -179.7612184459793, 57.60370469515676, 62.54686091264844 
-110.92101172929355, 17.890285179211542, 22.75247430397996, 179.47036045909186, 57.38703608373742, 62.54907275841092 
-111.80641715345668, 17.510286238875853, 22.75302609223812, 178.70477904136078, 57.17211581029819, 62.551274673303965 
-112.6907814954228, 17.13203960700734, 22.753565140822317, 177.94194396163886, 56.95897566225311, 62.553466019446375 
-113.57419349788799, 16.755632834734275, 22.754091373094386, 177.18176486339223, 56.74764690889661, 62.55564616681191 
-114.45674018467837, 16.38115292238132, 22.754604726486086, 176.42415426959369, 56.5381603141315, 62.55781449337103 
-115.33850684551047, 16.008686333951413, 22.755105152399505, 175.66902748356296, 56.33054614843099, 62.55997038522447 
-116.21957702116718, 15.638319010461048, 22.75559261609097, 174.91630249363712, 56.124834200072094, 62.56211323672891 
-117.10003248901478, 15.270136382108511, 22.75606709653869, 174.16589988151767, 55.921053785675774, 62.564242450614735 
-117.97995324879587, 14.904223379255544, 22.756528586294227, 173.41774273414447, 55.71923376008729, 62.56635743809611 
-118.85941750864082, 14.540664442204875, 22.7569770913181, 172.67175655895267, 55.51940252562883, 62.56845761897288 
-119.73850167124864, 14.179543529756838, 22.757412630799777, 171.92786920237168, 55.32158804075458, 62.57054242172511 
-120.61728032019546, 13.820944126530184, 22.757835236962293, 171.18601077143225, 55.1258178281375, 62.57261128359978 
-121.49582620633684, 13.464949249032895, 22.75824495485176, 170.44611355834965, 54.93211898221495, 62.57466365068978 
-122.37421023427694, 13.111641450470753, 22.758641842112123, 169.70811196795816, 54.740518176219425, 62.57669897800568 
-123.25250144888543, 12.761102824282068, 22.759025968745387, 168.9719424478748, 54.55104166871961, 62.57871672954001 
-124.13076702184844, 12.41341500638891, 22.759397416857787, 168.2375434212754, 54.363715309695166, 62.58071637832407 
-125.00907223824876, 12.068659176155913, 22.75975628039211, 167.50485522217082, 54.17856454616802, 62.58269740647777 
-125.88748048317436, 11.726916056049614, 22.760102664846674, 166.77382003307426, 53.99561442741197, 62.58465930525234 
-126.7660532283629, 11.388265909992466, 22.760436686981176, 166.04438182495645, 53.814889609760904, 62.58660157506611 
-127.64485001889483, 11.052788540406917, 22.760758474510027, 165.31648629938783, 53.63641436103553, 62.58852372553351 
-128.52392845995323, 10.7205632839469, 22.76106816578344, 164.59008083277223, 53.46021256460731, 62.590425275487334 
-129.40334420367597, 10.39166900591521, 22.761365909456682, 163.86511442257915, 53.28630772311769, 62.592305752994726 
-130.28315093612903, 10.06618409336723, 22.761651864148096, 163.1415376354866, 53.114722961869674, 62.594164695366494 
-131.1634003644376, 9.744186446902695, 22.761926198086165, 162.41930255734906, 52.945481031908265, 62.59600164916045 
-132.04414220411408, 9.425753471149612, 22.76218908874622, 161.69836274490933, 52.77860431280549, 62.59781617017874 
-132.9254241666301, 9.110962063945497, 22.762440722477223, 160.9786731791756, 52.61411481516507, 62.59960782345913 
-133.80729194728173, 8.799888604223757, 22.76268129411916, 160.26019022038943, 52.45203418286129, 62.601376183260804 
-134.68978921340297, 8.492608938614541, 22.762911006611446, 159.54287156451207, 52.29238369502579, 62.60312083304464 
-135.57295759298734, 8.189198366771576, 22.763130070593068, 158.82667620116058, 52.135184267795644, 62.60484136544812 
-136.45683666377974, 7.889731625438823, 22.76333870399471, 158.11156437292752, 51.980456455835515, 62.60653738225501 
-137.34146394290715, 7.594282871272865, 22.763537131623767, 157.39749753602143, 51.828220453646196, 62.60820849436055 
-138.22687487711724, 7.302925662439313, 22.763725584742364, 156.6844383221667, 51.67849609667123, 62.60985432173133 
-139.11310283370076, 7.015732939003836, 22.76390430063934, 155.97235050170545, 51.531302862213074, 62.61147449336121 
-140.00017909217314, 6.732777002141111, 22.764073522196526, 155.26119894784568, 51.38665987016962, 62.61306864722256 
-140.88813283679673, 6.454129492187192, 22.764233497449883, 154.5509496020022, 51.244585883601765, 62.61463643021354 
-141.77699115002451, 6.179861365563783, 22.764384479146305, 153.84156944017937, 51.10509930914195, 62.6161774981015 
-142.66677900695112, 5.910042870605273, 22.764526724296328, 153.13302644034746, 50.968218197253634, 62.617691515462795 
-143.5575192708559, 5.644743522322233, 22.764660493723653, 152.4252895507651, 50.833960242351054, 62.61917815561885 
-144.44923268992724, 5.384032076137856, 22.76478605161188, 151.71832865920308, 50.70234278278832, 62.6206371005695 
-145.34193789525497, 5.127976500636635, 22.76490366504913, 151.01211456302792, 50.57338280072673, 62.622068040922834 
-146.2356514001815, 4.876643949367383, 22.765013603571116, 150.3066189401023, 50.44709692188868, 62.62347067582253 
-147.13038760110058, 4.630100731745457, 22.76511613870333, 149.60181432046457, 50.32350141520649, 62.62484471287265 
-148.02615877979264, 4.388412283102223, 22.76521154350284, 148.89767405874935, 50.20261219237394, 62.62618986805984 
-148.9229751073862, 4.1516431339322235, 22.76530009210038, 148.19417230731298, 50.08444480730821, 62.62750586567386 
-149.8208446500318, 3.919856878391775, 22.765382059243397, 147.49128399002996, 49.96901445552968, 62.62879243822584 
-150.7197733763755, 3.693116142105198, 22.765457719840445, 146.78898477672675, 49.85633597346668, 62.630049326365025 
-151.6197651669154, 3.471482549337945, 22.765527348507764, 146.0872510582223, 49.74642383769215, 62.631276278794275 
-152.52082182532254, 3.2550166895983077, 22.76559121911849, 145.3860599219443, 49.639292164098855, 62.632473052184004 
-153.4229430918056, 3.0437780837323096, 22.76564960435515, 144.68538912809282, 49.53495470701976, 62.6336394110855 
-154.32612665859355, 2.837825149578778, 22.765702775266035, 143.98521708632364, 49.43342485829957, 62.63477512784322 
-155.23036818760826, 2.6372151672539776, 22.76575100082593, 143.28552283292476, 49.33471564632387, 62.63587998250666 
-156.1356613303936, 2.4420042441377485, 22.765794547502043, 142.58628600846052, 49.23883973501132, 62.636953762742124 
-157.04199775036295, 2.2522472796350756, 22.76583367882535, 141.88748683585996, 49.14580942277487, 62.63799626374383 
-157.9493671474222, 2.067997929789034, 22.765868654968187, 141.18910609892515, 49.05563664145729, 62.6390072881458 
-158.85775728501832, 1.8893085718232223, 22.765899732328602, 140.4911251212382, 48.96833295524644, 62.63998664593359 
-159.76715401965913, 1.7162302686929898, 22.76592716312191, 139.79352574544546, 48.88390955957518, 62.640934154356785 
-160.67754133294153, 1.5488127337266842, 22.76595119498006, 139.09629031289782, 48.802377280011065, 62.64184963784216 
-161.58890136611944, 1.3871042954392234, 22.76597207055941, 138.39940164362926, 48.72374657114044, 62.642732927907765 
-162.50121445723488, 1.231151862601315, 22.765990027157258, 137.70284301665342, 48.648027515451496, 62.643583863078234 
-163.41445918082812, 1.081000889648421, 22.76600529633784, 137.00659815056122, 48.575229822220834, 62.64440228880131 
-164.32861239023433, 0.9366953425141691, 22.766018103568136, 136.3106511844019, 48.50536282640751, 62.645188057365964 
-165.24364926246625, 0.7982776649732485, 22.76602866786401, 135.61498665883178, 48.438435487558884, 62.64594102782215 
-166.15954334567311, 0.665788745578488, 22.766037201447173, 134.919589497514, 48.37445638873208, 62.64666106590239 
-167.07626660915835, 0.5392678852768724, 22.76604390941345, 134.2244449887552, 48.31343373543469, 62.647348043945705 
-167.99378949592844, 0.4187527657884723, 22.76604898941269, 133.5295387673637, 48.25537535458845, 62.6480018408233 
-168.91208097773654, 0.30427941883129606, 22.766052631340848, 132.83485679671605, 48.20028869351922, 62.648622341866975 
-169.831108612576, 0.19588219627399725, 22.766055017044597, 132.14038535101818, 48.148180818976414, 62.64920943879993 
-170.7508386045688, 0.09359374129672197, 22.76605632003886, 131.44611099774806, 48.09905841618528, 62.64976302967031 
-171.67123586618487, -0.002555039361404133, 22.76605670523767, 130.75202058026818, 48.052927787934536, 62.65028301878738 
-172.59226408272028, -0.0925350019918325, 22.76605632869868, 130.05810120059508, 48.00979485370247, 62.65076931666097 
-173.51388577895145, -0.1763187912693939, 22.76605533738165, 129.3643402023154, 47.96966514882389, 62.65122183994376 
-174.43606238787564, -0.25388086429719187, 22.766053868921336, 128.67072515363608, 47.932543823700506, 62.651640511376826 
-175.3587543214383, -0.3251975132756715, 22.766052051414903, 127.97724383055956, 47.89843564305696, 62.65202525973862 
-176.28192104314007, -0.3902468867312188, 22.766050003224343, 127.28388420017181, 47.867344985244664, 62.6523760197972 
-177.20552114240837, -0.4490090092433002, 22.766047832793973, 126.59063440403472, 47.83927584159536, 62.652692732266104 
-178.12951241061097, -0.5014657996131451, 22.766045638483455, 125.89748274167192, 47.81423181582618, 62.65297534376384 
-179.0538519185819, -0.5476010874210279, 22.766043508416345, 125.20441765413909, 47.79221612349811, 62.65322380677703 
-179.9784960955236, -0.5874006279237504, 22.766041520344544, 124.51142770766926, 47.77323159152893, 62.653438079627314 
179.0965991908565, -0.6208521152484622, 22.766039741528754, 123.81850157738386, 47.757280657762266, 62.6536181264423 
178.17147855312317, -0.6479451938438184, 22.766038228635118, 123.12562803106118, 47.74436537059382, 62.653763917130135 
177.24618700195566, -0.6686714681545192, 22.766037027648167, 122.43279591295276, 47.73448738865583, 62.65387542735818 
176.32076986321226, -0.6830245104904474, 22.766036173800178, 121.73999412763953, 47.72764798056039, 62.65395263853581 
175.39527269437664, -0.6909998670668333, 22.76603569151711, 121.04721162391954, 47.72384802470272, 62.65399553780099 
174.46974120054855, -0.6925950621974593, 22.76603559438112, 120.35443737871779, 47.723088009124524, 62.65400411801109 
173.54422115014393, -0.6878096006283122, 22.76603588510967, 119.66166038101143, 47.72536803143791, 62.65397837773796 
172.61875829046974, -0.6766449680046552, 22.76603655555138, 118.96886961576028, 47.73068779881029, 62.653918321266545 
171.69339826334098, -0.6591046294701253, 22.766037586698566, 118.27605404783604, 47.73904662800991, 62.65382395859829 
170.76818652090512, -0.6351940264021146, 22.766038948716375, 117.5832026059406, 47.750443445512246, 62.65369530545808 
169.84316824184026, -0.6049205712931645, 22.766040600988603, 116.8903041665061, 47.764876787666786, 62.65353238330571 
168.91838824809045, -0.5682936407936757, 22.766042492180063, 116.1973475375676, 47.7823448009238, 62.653335219350936 
167.99389092229927, -0.5253245669368375, 22.766044560315418, 115.50432144260077, 47.802845242120505, 62.65310384657301 
167.06972012610032, -0.47602662657185363, 22.766046732874436, 114.81121450431519, 47.82637547882586, 62.652838303743934 
166.14591911941858, -0.4204150290368508, 22.76604892690344, 114.11801522839518, 47.852932489743125, 62.6525386354556 
165.22253048093324, -0.35850690210808966, 22.766051049142884, 113.42471198717921, 47.882512865168884, 62.65220489215113 
164.29959602984601, -0.2903212762667786, 22.766052996170874, 112.73129300326883, 47.91511280750764, 62.65183713015963 
163.37715674909492, -0.21587906732977402, 22.766054654562414, 112.03774633305787, 47.95072813184021, 62.65143541173502 
162.45525271014583, -0.13520305749477496, 22.76605590106413, 111.34405985017275, 47.989354266544595, 62.65099980509834 
161.5339229994884, -0.04831787485507989, 22.76605660278445, 110.65022122881398, 48.03098625396757, 62.650530384483595 
160.61320564695495, 0.04475002855708923, 22.766056617398622, 109.95621792698901, 48.075618751144965, 62.65002723018734 
159.6931375559737, 0.14397240013589235, 22.766055793368643, 109.2620371696263, 48.12324603056878, 62.6494904286213 
158.77375443585936, 0.24931921140939925, 22.766053970177595, 108.56766593155976, 48.173861980998744, 62.64892007236851 
157.85509073623638, 0.36075868401982963, 22.766050978578207, 107.87309092037293, 48.2274601083162, 62.6483162602425 
156.9371795836805, 0.47825731690398937, 22.766046640855194, 107.17829855909156, 48.28403353641748, 62.6476790973495 
156.02005272065614, 0.6017799145987797, 22.766040771101125, 106.48327496871255, 48.343575008144356, 62.6470086951535 
155.10374044681828, 0.7312896165943664, 22.766033175505374, 105.78800595055762, 48.40607688624854, 62.646305171544135 
154.18827156273744, 0.8667479276555182, 22.766023652655836, 105.09247696843862, 48.471531154387435, 62.645568650907286 
153.27367331609844, 1.0081147490300493, 22.766011993853013, 104.39667313062169, 48.53992941814758, 62.6447992641977 
152.35997135041308, 1.155348410461799, 22.76599798343592, 103.70057917157642, 48.61126290609307, 62.64399714901447 
151.44718965627916, 1.3084057029246186, 22.765981399119568, 103.00417943349593, 48.68552247083476, 62.643162449678215 
150.53535052520775, 1.467241911992979, 22.765962012343476, 102.30745784757309, 48.76269859011728, 62.64229531731049 
149.62447450603307, 1.631810851764469, 22.765939588630708, 101.61039791501734, 48.8427813679194, 62.64139590991473 
148.71458036390936, 1.802064899249186, 22.765913887957087, 100.91298268779622, 48.925760535564365, 62.6404643924591 
147.805685041892, 1.977955029141201, 22.765884665129978, 100.21519474908453, 49.01162545283555, 62.63950093696052 
146.89780362509026, 2.159430848887633, 22.765851670176165, 99.51701619340436, 49.100365109093524, 62.63850572256998 
145.9909493073726, 2.3464406339716506, 22.76581464873841, 98.81842860643653, 49.19196812438963, 62.637478935659 
145.08513336059727, 2.5389313633263813, 22.765773342479985, 98.1194130444858, 49.28642275057193, 62.63642076990686 
144.18036510633289, 2.7368487547981535, 22.76572748949684, 97.4199500135787, 49.38371687237809, 62.635331426388326 
143.27665189002906, 2.9401373005786517, 22.765676824736687, 96.72001944817417, 49.48383800851072, 62.634211113662154 
142.3739990575875, 3.148740302527304, 22.765621080424598, 96.01960068946451, 49.586773312689694, 62.633060047859345 
141.4724099342814, 3.362599907306774, 22.76555998649442, 95.31867246324474, 49.69250957467602, 62.63187845277187 
140.5718858059625, 3.5816571412567266, 22.76549327102558, 94.61721285732592, 49.80103322126205, 62.63066655994086 
139.67242590249217, 3.8058519449327597, 22.765420660684512, 93.91519929846841, 49.91233031722177, 62.62942460874458 
138.77402738332694, 4.035123207240002, 22.765341881170386, 93.21260852880862, 50.02638656621563, 62.62815284648559 
137.8766853251852, 4.269408799093025, 22.765256657664256, 92.50941658175246, 50.1431873116436, 62.62685152847719 
136.9803927117185, 4.5086456065362785, 22.76516471528132, 91.8055987573076, 50.262717537440004, 62.625520918128636 
136.08514042510708, 4.752769563262055, 22.76506577952543, 91.10112959682431, 50.38496186880367, 62.624161287029246 
135.19091723949668, 5.001715682465209, 22.764959576745472, 90.39598285711465, 50.50990457285657, 62.62277291503069 
134.2977098161916, 5.255418087977207, 22.76484583459292, 89.69013148391764, 50.63752955922383, 62.62135609032778 
133.40550270051762, 5.513810044624281, 22.764724282479897, 88.98354758467678, 50.767820380527915, 62.6199111095371 
132.51427832026582, 5.776823987757781, 22.764594652037292, 88.27620240059437, 50.90076023278948, 62.61843827777349 
131.62401698562908, 6.044391551907307, 22.764456677572227, 87.56806627792675, 51.03633195572692, 62.61693790872409 
130.73469689054116, 6.316443598510354, 22.764310096524245, 86.85910863848089, 51.17451803294693, 62.61541032471969 
129.84629411532978, 6.592910242674791, 22.764154649919714, 86.14929794927357, 51.315300592017216, 62.61385585680323 
128.95878263059362, 6.873720878933679, 22.76399008282381, 85.43860169130987, 51.45866140441334, 62.61227484479512 
128.0721343022165, 7.158804205954327, 22.763816144789434, 84.72698632743835, 51.60458188533014, 62.61066763735526 
127.1863188974305, 7.448088250166703, 22.763632590302535, 84.01441726923647, 51.75304309334902, 62.609034592041574 
126.30130409184328, 7.741500388278854, 22.763439179223255, 83.30085884287877, 51.90402572995106, 62.6073760753646 
125.41705547734657, 8.038967368649551, 22.763235677222216, 82.58627425393787, 52.05751013886629, 62.60569246283831 
124.5335365708238, 8.340415331491421, 22.763021856211527, 81.87062555106627, 52.21347630524873, 62.60398413902655 
123.65070882357927, 8.64576982787988, 22.762797494769824, 81.1538735885044, 52.371903854666314, 62.60225149758505 
122.76853163141217, 8.954955837546263, 22.762562378560833, 80.43597798735809, 52.5327720518948, 62.60049494129913 
121.88696234526442, 9.267897785435382, 22.76231630074485, 79.71689709558652, 52.69605979950396, 62.598714882116205 
121.00595628237163, 9.584519557010653, 22.76205906238272, 78.99658794663804, 52.86174563622394, 62.59691174117339 
120.12546673785367, 9.904744512291792, 22.76179047283153, 78.27500621667006, 53.02980773507951, 62.5950859488201 
119.24544499668201, 10.228495498612581, 22.761510350131918, 77.55210618028478, 53.20022390127896, 62.59323794463494 
118.365840345968, 10.55569486208808, 22.761218521385906, 76.82784066471098, 53.37297156984401, 62.591368177437204 
117.4866000875188, 10.886264457782827, 22.760914823125336, 76.10216100235807, 53.5480278029669, 62.58947710529264 
116.60766955061304, 11.220125658573668, 22.760599101669925, 75.37501698166591, 53.72536928707956, 62.58756519551304 
115.7289921049536, 11.55719936270224, 22.760271213474912, 74.64635679617072, 53.904972329619525, 62.58563292465002 
114.85050917375882, 11.897406000014707, 22.75993102546735, 73.91612699170334, 54.08681285547676, 62.58368077848235 
113.97216024696002, 12.240665536887121, 22.759578415371074, 73.18427241163371, 54.27086640310421, 62.58170925199688 
113.09388289447746, 12.586897479837466, 22.759213272019515, 72.4507361400704, 54.45710812027478, 62.579718849362834 
112.215612779554, 12.936020877826092, 22.758835495656186, 71.71545944292168, 54.64551275946622, 62.577710083899554 
111.33728367212933, 13.28795432324845, 22.758444998222252, 70.97838170671939, 54.8360546728548, 62.57568347803719 
110.45882746224628, 13.642615951625173, 22.758041703631005, 70.23944037510411, 55.0287078068975, 62.573639563270575 
109.58017417348495, 13.999923439996032, 22.757625548028585, 69.4985708828651, 55.22344569648163, 62.57157888010567 
108.70125197642744, 14.359794004025867, 22.757196480040918, 68.75570658742444, 55.42024145861996, 62.569501977999266 
107.82198720216297, 14.72214439383154, 22.75675446100619, 68.01077869765115, 55.61906778566776, 62.56740941529078 
106.94230435584905, 15.086890888540816, 22.756299465192768, 67.26371619988541, 55.81989693803783, 62.56530175912713 
106.06212613035251, 15.453949289594815, 22.75583148000218, 66.51444578104977, 56.02270073638769, 62.563179585379665 
105.1813734199999, 15.82323491280759, 22.75535050615686, 65.76289174871876, 56.227450553252176, 62.561043478553614 
