# MEX_intpoint_lon [deg], MEX_intpoint_lat [deg], MEX_intpoint_angle [deg], TGO_intpoint_lon [deg], TGO_intpoint_lat [deg], TGO_intpoint_angle [deg] 
-103.70977221156548, 20.365464350111253, 22.16673356613799, -141.50129021361442, 58.826652280483685, 62.53260490684529 
-104.62278231780193, 20.005993579178003, 22.16730028020824, -142.28292303842335, 58.59704895821062, 62.53489859257034 
-105.53411190975751, 19.647477482769613, 22.167857195266862, -143.06114115865574, 58.369026939717536, 62.537186137024236 
-106.44384867354626, 19.290004604236398, 22.16840415337723, -143.83605808628695, 58.14262127576552, 62.53946684792462 
-107.3520790838523, 18.93366283695212, 22.16894100846411, -144.60778358532738, 57.917866413844365, 62.541740040055664 
-108.25888837316596, 18.578539438937757, 22.16946762633317, -145.37642380711878, 57.6947962162432, 62.54400503546026 
-109.16436050252223, 18.224721046859386, 22.169983884676217, -146.14208142024043, 57.4734439770743, 62.54626116362392 
-110.06857813362299, 17.872293689361857, 22.170489673062125, -146.90485573523168, 57.25384243830282, 62.54850776165051 
-110.97162260223229, 17.521342799702033, 22.17098489291351, -147.66484282433572, 57.036023804831764, 62.550744174429575 
-111.87357389274062, 17.171953227647887, 22.17146945746925, -148.4221356364611, 56.82001975868936, 62.55296975479556 
-112.77451061380266, 16.824209250611396, 22.171943291732962, -149.17682410755512, 56.60586147236343, 62.55518386367854 
-113.6745099749589, 16.478194583985694, 22.17240633240746, -149.92899526657558, 56.393579621324875, 62.55738587024691 
-114.57364776415939, 16.13399239065847, 22.172858527815386, -150.67873333724356, 56.1832043957807, 62.559575152041674 
-115.47199832611516, 15.791685289675526, 22.173299837806177, -151.42611983575225, 55.97476551169427, 62.561751095102544 
-116.36963454140803, 15.451355364030483, 22.173730233649408, -152.17123366460288, 55.768292221109164, 62.563913094085926 
-117.2666278062987, 15.113084167557789, 22.174149697914835, -152.9141512027315, 55.563813321810905, 62.566060552374815 
-118.16304801317668, 14.776952730908539, 22.17455822433918, -153.6549463920855, 55.36135716635895, 62.56819288218052 
-119.05896353160459, 14.443041566589415, 22.17495581767999, -154.39369082080296, 55.16095167052002, 62.57030950463648 
-119.95444118991354, 14.111430673047666, 22.175342493556695, -155.1304538031411, 54.96262432113211, 62.57240984988412 
-120.84954625731405, 13.782199537785505, 22.175718278279128, -155.86530245629686, 54.76640218342712, 62.57449335715102 
-121.74434242649104, 13.455427139489888, 22.176083208663808, -156.59830177425442, 54.57231190783858, 62.576559474821146 
-122.63889179665945, 13.131191949164355, 22.17643733183818, -157.32951469879174, 54.38037973631995, 62.57860766049759 
-123.53325485706027, 12.809571930251751, 22.176780705033067, -158.0590021877709, 54.19063150819735, 62.580637381057755 
-124.4274904708844, 12.490644537737769, 22.17711339536383, -158.78682328083332, 54.00309266557969, 62.5826481127011 
-125.32165585961543, 12.174486716227063, 22.17743547960017, -159.51303516261595, 53.81778825834813, 62.58463934098978 
-126.21580658778856, 11.861174896985192, 22.177747043925315, -160.23769322359877, 53.63474294874563, 62.5866105608818 
-127.10999654816777, 11.550784993941026, 22.17804818368463, -160.96085111869078, 53.45398101558638, 62.58856127675758 
-128.00427794734762, 11.24339239864629, 22.17833900312408, -161.6825608236559, 53.2755263581041, 62.59049100243928 
-128.8987012917916, 10.939071974190012, 22.17861961511893, -162.40287268947716, 53.09940249945752, 62.59239926120381 
-129.79331537432273, 10.637898048067843, 22.1788901408931, -163.1218354947525, 52.92563258990993, 62.59428558578888 
-130.68816726108736, 10.339944404007417, 22.179150709729353, -163.8394964962119, 52.75423940969977, 62.59614951839314 
-131.5833022790157, 10.045284272753166, 22.17940145867099, -164.55590147744175, 52.58524537161782, 62.597990610669584 
-132.47876400380923, 9.753990321815227, 22.179642532215244, -165.271094795899, 52.418672523306256, 62.59980842371346 
-133.37459424848595, 9.466134644189426, 22.17987408199881, -165.98511942829327, 52.25454254929407, 62.60160252804403 
-134.27083305252006, 9.181788746056851, 22.180096266476127, -166.69801701441267, 52.09287677278283, 62.603372503580744 
-135.1675186716161, 8.90102353347346, 22.180309250590525, -167.40982789946526, 51.93369615719604, 62.60511793961397 
-136.06468756815926, 8.623909298062287, 22.180513205438945, -168.12059117500502, 51.777021307504995, 62.606838434770516 
-136.96237440238832, 8.35051570172265, 22.18070830793055, -168.83034471850874, 51.62287247134351, 62.608533596974006 
-137.86061202433916, 8.080911760372837, 22.180894740439772, -169.53912523166616, 51.47126953992324, 62.61020304340057 
-138.75943146661035, 7.815165826744721, 22.18107269045406, -170.24696827744475, 51.32223204876102, 62.61184640042974 
-139.65886193800347, 7.5533455722511595, 22.18124235021712, -170.9539083159859, 51.17577917822933, 62.61346330359103 
-140.5589308180942, 7.2955179679486895, 22.181403916367774, -171.65997873938855, 51.0319297539401, 62.615053397506266 
-141.45966365279068, 7.04174926462067, 22.18155758957521, -172.3652119054326, 50.89070224697251, 62.616616335828 
-142.36108415093796, 6.792104972007942, 22.181703574170868, -173.06963917029273, 50.7521147739542, 62.61815178117424 
-143.26321418202858, 6.54664983721627, 22.18184207777765, -173.77329092029115, 50.61618509700539, 62.61965940505939 
-144.16607377507938, 6.305447822332196, 22.18197331093679, -174.4761966027351, 50.48293062355539, 62.621138887822205 
-145.06968111873664, 6.0685620812811445, 22.182097486733003, -175.17838475588368, 50.352368406039744, 62.622589918550595 
-145.97405256267015, 5.836054935963655, 22.182214820418295, -175.87988303808598, 50.22451514148711, 62.6240121950034 
-146.87920262031906, 5.607987851708101, 22.182325529034998, -176.58071825613078, 50.09938717100367, 62.62540542353006 
-147.78514397304951, 5.3844214120802905, 22.182429831038572, -177.28091639284702, 49.97700047916319, 62.62676931898715 
-148.69188747578528, 5.165415293092534, 22.182527945920523, -177.98050263399128, 49.85737069331045, 62.62810360465364 
-149.5994421641709, 4.951028236857033, 22.18262009383211, -178.67950139445773, 49.74051308278546, 62.629408012143784 
-150.5078152633252, 4.741318024730355, 22.182706495209203, -179.3779363438449, 49.62644255807553, 62.63068228131823 
-151.41701219824128, 4.536341449998037, 22.182787370398913, 179.92416956858952, 49.51517366990234, 62.631926160194176 
-152.32703660588842, 4.336154290150091, 22.182862939288317, 179.2267940895539, 49.40672060825068, 62.63313940485388 
-153.2378903490662, 4.140811278800332, 22.182933420935985, 178.52991563789942, 49.301097201345215, 62.63432177935263 
-154.14957353206128, 3.9503660773041824, 22.182999033206553, 177.8335132813193, 49.19831691458191, 62.63547305562557 
-155.06208451815183, 3.764871246131251, 22.183059992409063, 177.1375667135441, 49.09839284941986, 62.63659301339423 
-155.97541994900303, 3.584378216050755, 22.183116512939417, 176.44205623200708, 49.00133774223966, 62.63768144007303 
-156.889574765991, 3.4089372591893765, 22.183168806927338, 175.74696271595508, 48.907163963173936, 62.63873813067519 
-157.80454223349125, 3.238597460022249, 22.183217083888568, 175.0522676049813, 48.81588351491548, 62.63976288771932 
-158.7203139641602, 3.0734066863594887, 22.18326155038246, 174.3579528779573, 48.727508031508556, 62.64075552113613 
-159.63687994623646, 2.913411560391262, 22.18330240967562, 173.66400103234298, 48.64204877712818, 62.64171584817583 
-160.55422857288116, 2.7586574298556665, 22.183339861412012, 172.9703950638537, 48.55951664485262, 62.64264369331643 
-161.47234667357264, 2.6091883393943878, 22.18337410128982, 172.27711844646456, 48.479922155433776, 62.643538888172834 
-162.39121954756496, 2.465047002161569, 22.183405320745756, 171.58415511273387, 48.403275456070084, 62.64440127140757 
-163.31083099941384, 2.326274771751777, 22.18343370664695, 170.89148943442655, 48.32958631918644, 62.645230688642364 
-164.23116337656742, 2.1929116145132803, 22.18345944099104, 170.1991062034209, 48.25886414122531, 62.6460269923721 
-165.1521976090135, 2.0649960823126077, 22.18348270061477, 169.50699061288233, 48.19111794145318, 62.64679004187987 
-166.07391325096825, 1.9425652858163467, 22.183503656911462, 168.8151282386874, 48.126356360786424, 62.64751970315451 
-166.99628852458494, 1.8256548683556242, 22.183522475557805, 168.1235050210839, 48.064587660640136, 62.64821584881001 
-167.91930036565498, 1.7142989804380198, 22.183539316250247, 167.43210724657152, 48.00581972180369, 62.64887835800762 
-168.84292447126666, 1.6085302549709157, 22.18355433245143, 166.74092152998995, 47.950060043346454, 62.64950711638015 
-169.76713534938028, 1.5083797832590395, 22.18356767114693, 166.04993479680027, 47.89731574155691, 62.65010201595907 
-170.6919063702724, 1.4138770918378119, 22.183579472612628, 165.35913426554723, 47.847593548918354, 62.65066295510448 
-171.61720981979394, 1.3250501202022977, 22.183589870193064, 164.66850743048963, 47.80089981312413, 62.651189838438135 
-172.5430169543826, 1.2419251994900846, 22.183598990091028, 163.9780420443873, 47.75724049613512, 62.65168257677927 
-173.46929805776105, 1.164527032174238, 22.183606951168723, 163.28772610143292, 47.716621173282235, 62.652141087084225 
-174.39602249924823, 1.0928786728202224, 22.18361386476067, 162.59754782031726, 47.67904703241635, 62.65256529238887 
-175.32315879360416, 1.027001509958403, 22.18361983449872, 161.9074956274179, 47.644522873108, 62.65295512175496 
-176.25067466232267, 0.9669152491210369, 22.183624956149263, 161.2175581401005, 47.61305310589899, 62.65331051021993 
-177.17853709628145, 0.9126378970897615, 22.183629317463033, 160.52772415012265, 47.58464175160786, 62.65363139875034 
-178.10671241965318, 0.864185747396662, 22.183632998037528, 159.83798260713075, 47.55929244069116, 62.65391773419938 
-179.03516635497652, 0.8215733671187677, 22.18363606919232, 159.14832260224028, 47.537008412662125, 62.654169469267984 
-179.96386408928174, 0.7848135850024418, 22.183638593857502, 158.45873335169017, 47.5177925155682, 62.654386562470116 
179.1072296588394, 0.7539174809506385, 22.18364062647512, 157.76920418056275, 47.501647205528954, 62.65456897810209 
178.17815057133274, 0.7288943769022663, 22.183642212914165, 157.07972450655964, 47.4885745463353, 62.654716686215885 
177.24893466206714, 0.7097518291292131, 22.18364339039883, 156.39028382382563, 47.4785762091113, 62.65482966259682 
176.31961820762572, 0.6964956219726552, 22.183644187450405, 155.70087168681184, 47.47165347203927, 62.65490788874514 
175.39023767762566, 0.6891297630361503, 22.183644623842692, 155.01147769416957, 47.46780722014881, 62.65495135186233 
174.46082966469007, 0.6876564798492157, 22.183644710571155, 154.3220914726668, 47.46703794517056, 62.6549600448412 
173.53143081419884, 0.6920762180106564, 22.18364444983574, 153.63270266111888, 47.469345745454724, 62.654933966260586 
172.6020777539436, 0.7023876408169741, 22.183643835037447, 152.9433008943256, 47.47473032595476, 62.65487312038424 
171.67280702381487, 0.7185876303768813, 22.183642850788654, 152.2538757870059, 47.48319099827633, 62.65477751716413 
170.74365500564733, 0.7406712902087876, 22.183641472937094, 151.5644169177227, 47.494726680791125, 62.65464717224785 
169.81465785335052, 0.7686319493138869, 22.183639668603607, 150.8749138127889, 47.5093358988156, 62.65448210699061 
168.88585142344857, 0.8024611677133899, 22.183637396233493, 150.1853559301471, 47.52701678485392, 62.65428234847125 
167.95727120615354, 0.8421487434343474, 22.183634605661407, 149.4957326432141, 47.547767078904656, 62.65404792951256 
167.0289522570928, 0.8876827209243704, 22.183631238189832, 148.80603322468178, 47.571584128830345, 62.65377888870578 
166.10092912980917, 0.9390494008717591, 22.183627226680777, 148.11624683026633, 47.59846489078905, 62.653475270439394 
165.17323580914933, 0.9962333514035627, 22.183622495660963, 147.42636248239626, 47.62840592972692, 62.65313712493175 
164.2459056456519, 1.059217420630507, 22.18361696143986, 146.736369053831, 47.66140341993009, 62.65276450826788 
163.31897129104354, 1.127982750503954, 22.183610532240927, 146.0462552512007, 47.69745314563502, 62.65235748244019 
162.3924646349459, 1.202508791946825, 22.183603108345455, 145.35600959845763, 47.73655050169534, 62.65191611539304 
161.46641674289262, 1.2827733212169308, 22.18359458224917, 144.66562042023023, 47.77869049430348, 62.65144048107115 
160.54085779574967, 1.368752457458173, 22.183584838831052, 143.97507582506898, 47.82386774176536, 62.650930659471484 
159.6158170306267, 1.460420681392105, 22.18357375553449, 143.28436368857504, 47.872076475325805, 62.65038673669882 
158.69132268336298, 1.5577508550995804, 22.183561202560227, 142.59347163640012, 47.92331054004267, 62.64980880502492 
157.76740193266318, 1.6607142428397716, 22.183547043071048, 141.90238702710718, 47.97756339570708, 62.64919696295061 
156.8440808459541, 1.7692805328513617, 22.183531133407833, 141.21109693488046, 48.03482811780755, 62.64855131527157 
155.92138432702637, 1.8834178600787927, 22.18351332331671, 140.51958813207364, 48.09509739853475, 62.64787197314671 
154.9993360655183, 2.0030928297644324, 22.18349345618708, 139.82784707158297, 48.158363547824514, 62.64715905416977 
154.07795848829338, 2.128270541845895, 22.183471369300033, 139.13585986903385, 48.224618494435916, 62.64641268244343 
153.1572727127558, 2.258914616096345, 22.18344689408701, 138.4436122847668, 48.293853787060876, 62.645632988656416 
152.23729850214147, 2.394987217944323, 22.183419856398235, 137.75108970560976, 48.36606059546256, 62.644820110162556 
151.3180542228163, 2.5364490849088, 22.183390076780654, 137.05827712642179, 48.44122971163843, 62.64397419106242 
150.39955680360606, 2.683259553584172, 22.183357370764895, 136.36515913139414, 48.51935155100456, 62.64309538228702 
149.48182169717575, 2.835376587109598, 22.183321549161036, 135.67171987509238, 48.60041615359739, 62.64218384168327 
148.56486284347068, 2.992756803056691, 22.183282418362637, 134.97794306322365, 48.68441318528869, 62.64123973410137 
147.64869263522425, 3.155355501669286, 22.18323978065867, 134.28381193311222, 48.771331939009734, 62.64026323148359 
146.73332188553238, 3.3231266943894355, 22.183193434553043, 133.58930923386586, 48.8611613359802, 62.63925451295442 
145.81875979748708, 3.4960231326038094, 22.18314317509111, 132.89441720621375, 48.95388992693732, 62.63821376491188 
144.90501393585836, 3.673996336545253, 22.183088794192905, 132.19911756199764, 49.04950589336064, 62.63714118111965 
143.9920902008053, 3.856996624284987, 22.183030080992538, 131.5033914632955, 49.147997048687266, 62.636036962800155 
143.0799928035949, 4.044973140751671, 22.18296682218338, 130.8072195011566, 49.24935083951289, 62.63490131872788 
142.16872424429948, 4.23787388671468, 22.18289880236855, 130.1105816739263, 49.3535543467731, 62.63373446532311 
141.25828529144198, 4.435645747669996, 22.182825804416236, 129.41345736513713, 49.460594286899614, 62.632536626745726 
140.34867496355074, 4.638234522568565, 22.182747609819376, 128.71582532094226, 49.57045701294595, 62.631308034989004 
139.4398905125847, 4.84558495232823, 22.18266399905928, 128.01766362706604, 49.68312851567648, 62.63004892997248 
138.53192740918374, 5.0576407480721395, 22.182574751972595, 127.31894968524558, 49.79859442461317, 62.62875955963501 
137.62477932969696, 5.274344619038045, 22.1824796481213, 126.6196601891351, 49.916840009033635, 62.62744018002628 
136.71843814493857, 5.495638300104682, 22.18237846716502, 125.91977109964519, 50.03785017891396, 62.62609105539765 
135.8128939106178, 5.721462578883557, 22.182270989235388, 125.21925761968568, 50.16160948581016, 62.624712458291576 
134.9081348593879, 5.9517573223259275, 22.182156995311846, 124.51809416828166, 50.288102123670726, 62.62330466962949 
134.00414739445662, 6.186461502797363, 22.182036267598328, 123.8162543540289, 50.417311929573884, 62.62186797879785 
133.10091608469952, 6.425513223573805, 22.18190858990052, 123.11371094785444, 50.54922238438168, 62.62040268373235 
132.19842366121583, 6.66884974371568, 22.181773748002982, 122.41043585504633, 50.683816613303776, 62.61890909099961 
131.29665101526635, 6.916407502278263, 22.18163153004578, 121.70640008651449, 50.8210773863628, 62.61738751587676 
130.39557719753122, 7.168122141819211, 22.1814817269001, 121.00157372924342, 50.9609871187534, 62.61583828242798 
129.49517941862698, 7.42392853116591, 22.181324132542244, 120.29592591589555, 51.10352787108647, 62.61426172357823 
128.59543305082025, 7.683760787407934, 22.181158544425728, 119.58942479352163, 51.24868134951, 62.61265818118388 
127.69631163087791, 7.94755229708178, 22.180984763850713, 118.8820374913334, 51.39642890569749, 62.611028006099815 
126.79778686399315, 8.215235736517505, 22.180802596330572, 118.17373008749128, 51.54675153669474, 62.60937155824279 
125.89982862872769, 8.486743091319065, 22.18061185195483, 117.46446757485697, 51.699629884615256, 62.60768920665146 
125.00240498291345, 8.762005674952245, 22.18041234574823, 116.75421382566066, 51.855044236174386, 62.60598132954154 
124.10548217045621, 9.040954146416375, 22.18020389802527, 116.04293155502737, 52.012974522051834, 62.60424831435733 
123.20902462898756, 9.323518526978097, 22.17998633473986, 115.33058228330702, 52.17340031607162, 62.60249055781827 
122.31299499831302, 9.609628215947646, 22.179759487829553, 114.61712629714849, 52.33630083418863, 62.60070846596123 
121.41735412960615, 9.899212005480043, 22.179523195553962, 113.90252260925634, 52.5016549332697, 62.5989024541773 
120.522061095302, 10.19219809438591, 22.179277302826844, 113.18672891676549, 52.66944110965774, 62.59707294724376 
119.62707319964534, 10.488514100938227, 22.17902166154145, 112.46970155816652, 52.83963749750565, 62.59522037935079 
118.73234598985276, 10.788087074663855, 22.17875613088871, 111.75139546871068, 53.012221866867534, 62.59334519412227 
117.83783326785073, 11.09084350710999, 22.17848057766775, 111.03176413422153, 53.1871716215332, 62.591447844631304 
116.94348710255548, 11.396709341578005, 22.17819487658848, 110.31075954323585, 53.36446379659189, 62.58952879340925 
116.04925784266415, 11.70560998181895, 22.177898910565645, 109.5883321373931, 53.5440750557104, 62.587588512449194 
115.15509412993029, 12.017470299686407, 22.17759257100411, 108.86443075999019, 53.725981688109876, 62.58562748320279 
114.26094291290188, 12.33221464174474, 22.17727575807491, 108.1390026026128, 53.910159605225594, 62.58364619657076 
113.36674946110278, 12.649766834831903, 22.17694838098169, 107.4119931497524, 54.096584337032134, 62.58164515288677 
112.47245737964448, 12.970050190578185, 22.176610358217193, 106.68334612131267, 54.285231028016966, 62.57962486189443 
111.5780086242586, 13.292987508883408, 22.176261617809455, 105.9530034129059, 54.476074432783214, 62.577585842717575 
110.68334351674602, 13.618501080357229, 22.175902097557312, 105.22090503383461, 54.669088911262854, 62.57552862382331 
109.78840076084273, 13.9465126877283, 22.175531745254975, 104.48698904265015, 54.86424842351955, 62.57345374297779 
108.89311745850871, 14.27694360623004, 22.175150518905248, 103.75119148017468, 55.06152652411991, 62.571361747194864 
107.99742912664988, 14.609714602971994, 22.174758386921223, 103.01344629986801, 55.260896356051035, 62.56925319267703 
107.1012697142902, 14.944745935307514, 22.17435532831607, 102.27368529541668, 55.46233064416051, 62.56712864474914 
106.20457162021519, 15.281957348209968, 22.17394133288065, 101.53183802541663, 55.66580168809452, 62.564988677783944 
105.30726571111474, 15.621268070671082, 22.17351640134875, 100.78783173501606, 55.87128135470788, 62.56283387512029 
104.40928134025818, 15.962596811136956, 22.173080545549656, 100.04159127437943, 56.078741069919005, 62.560664828973266 
