# MEX_intpoint_lon [deg], MEX_intpoint_lat [deg], MEX_intpoint_angle [deg], TGO_intpoint_lon [deg], TGO_intpoint_lat [deg], TGO_intpoint_angle [deg] 
-104.46553779952791, 20.542254337387348, 22.61314213516056, -166.9276765132648, 59.10140290817693, 62.53006793443174 
-105.36506674294024, 20.1593871284768, 22.613763230968154, -167.7243504452641, 58.87976917321936, 62.53227029154458 
-106.2628898388063, 19.777603040100026, 22.61437300079126, -168.5174794165337, 58.65962698180765, 62.53446698899019 
-107.15910451230057, 19.39699329561663, 22.61497127244111, -169.30717700893393, 58.44101177632587, 62.536657361578854 
-108.05380668637756, 19.017648441495183, 22.615557887442137, -170.09355320310738, 58.22395837298779, 62.53884075061752 
-108.94709075816549, 18.63965836743551, 22.61613270105155, -170.8767145014627, 58.008500980193304, 62.54101650409557 
-109.83904957665017, 18.263112325615758, 22.616695582262285, -171.65676404672223, 57.7946732158766, 62.54318397686285 
-110.729774421511, 17.8880989490299, 22.61724641378951, -172.43380173616987, 57.58250812389324, 62.54534253080007 
-111.61935498298281, 17.514706268882392, 22.617785092040645, -173.20792433173688, 57.37203818949199, 62.54749153498177 
-112.50787934262505, 17.143021731010034, 22.61831152706904, -173.9792255660626, 57.16329535391409, 62.54963036583143 
-113.39543395489066, 16.773132211301927, 22.618825642511375, -174.74779624466726, 56.956311028161544, 62.55175840726923 
-114.28210362939497, 16.405124030091205, 22.619327375508902, -175.5137243443709, 56.75111610597345, 62.55387505085197 
-115.16797151379461, 16.039082965493378, 22.619816676612764, -176.27709510809274, 56.547740976047734, 62.55597969590552 
-116.05311907719465, 15.675094265667951, 22.620293509673385, -177.03799113616137, 56.346215533543806, 62.558071749649784 
-116.93762609401023, 15.31324265998181, 22.62075785171427, -177.79649247426445, 56.14656919090035, 62.56015062731595 
-117.821570628218, 14.953612369053943, 22.621209692790337, -178.55267669816436, 55.948830888000074, 62.562215752256364 
-118.70502901793925, 14.596287113663081, 22.621649035830963, -179.30661899530145, 55.75302910171274, 62.56426655604712 
-119.5880758603054, 14.241350122500716, 22.622075896468136, 179.94160775659392, 55.55919185484529, 62.566302478582934 
-120.4707839965633, 13.888884138753854, 22.622490302849734, 179.1919329137652, 55.3673467245275, 62.56832296816508 
-121.35322449738527, 13.53897142550292, 22.622892295438383, 178.44428799345525, 55.17752085005955, 62.57032748158189 
-122.23546664835543, 13.191693769921772, 22.623281926796174, 177.69860660358415, 54.98974094024708, 62.57231548418214 
-123.11757793561156, 12.847132486268013, 22.62365926135536, 176.95482437497267, 54.804033280247985, 62.574286449941496 
-123.99962403162701, 12.50536841765351, 22.624024375175658, 176.21287889600833, 54.62042373795408, 62.5762398615218 
-124.88166878112524, 12.166481936585791, 22.6243773556882, 175.47270964965378, 54.43893776992987, 62.57817521032376 
-125.76377418712397, 11.8305529442732, 22.62471830142667, 174.73425795270202, 54.25960042692946, 62.580091996532744 
-126.6460003971137, 11.497660868687595, 22.625047321745924, 173.99746689718413, 54.08243635901182, 62.58198972915791 
-127.5284056893803, 11.167884661379873, 22.625364536528526, 173.26228129384074, 53.90746982027377, 62.58386792606518 
-128.41104645948678, 10.841302793045644, 22.625670075879523, 172.5286476175699, 53.73472467321906, 62.58572611400334 
-129.29397720693623, 10.517993247839321, 22.625964079809957, 171.7965139547682, 53.564224392781334, 62.58756382862437 
-130.17725052204116, 10.198033516436979, 22.62624669790948, 171.06582995248417, 53.39599207001772, 62.58938061449748 
-131.06091707303221, 9.881500587849835, 22.626518089008574, 170.33654676930735, 53.23005041548948, 62.59117602511733 
-131.94502559344127, 9.568470939992173, 22.626778420830746, 169.60861702791766, 53.066421762344994, 62.5929496229064 
-132.8296228698016, 9.259020529008929, 22.62702786963523, 168.88199476922352, 52.90512806912019, 62.59470097921181 
-133.71475372970988, 8.953224777370666, 22.62726661985068, 168.15663540802046, 52.746190922270465, 62.59642967429662 
-134.6004610303007, 8.651158560745168, 22.627494863700246, 167.43249569010274, 52.58963153844814, 62.598135297326195 
-135.4867856471875, 8.352896193657026, 22.627712800818728, 166.70953365076534, 52.435470766538145, 62.59981744634885 
-136.37376646392917, 8.058511413948818, 22.62792063786201, 165.98770857463424, 52.28372908946503, 62.60147572827227 
-137.26144036208228, 7.768077366059651, 22.628118588109682, 165.26698095676701, 52.13442662578315, 62.60310975883477 
-138.14984221190596, 7.48166658313897, 22.62830687106096, 164.5473124649666, 51.98758313106196, 62.604719162572174 
-139.03900486378706, 7.199350968015801, 22.62848571202482, 163.8286659032543, 51.843217999077304, 62.60630357278039 
-139.9289591404563, 6.921201773046481, 22.628655341704615, 163.11100517645005, 51.70135026282003, 62.60786263147371 
-140.81973383007065, 6.647289578865491, 22.628815995777856, 162.39429525580994, 51.56199859533188, 62.609395989339305 
-141.7113556802364, 6.377684272067482, 22.628967914471666, 161.67850214567284, 51.42518131037908, 62.61090330568791 
-142.60384939305223, 6.112455021850387, 22.629111342134504, 160.96359285107073, 51.290916362973036, 62.61238424840086 
-143.497237621251, 5.851670255652484, 22.629246526804668, 160.24953534625794, 51.159221349747725, 62.61383849387412 
-144.39154096552213, 5.595397633818845, 22.629373719776215, 159.53629854411744, 51.03011350920265, 62.615265726958775 
-145.28677797309552, 5.343704023335235, 22.629493175162825, 158.82385226640346, 50.903609721820104, 62.616665640898894 
-146.18296513766975, 5.096655470670263, 22.62960514946014, 158.11216721478183, 50.77972651006518, 62.618037937266614 
-147.0801169007676, 4.85431717376914, 22.629709901107304, 157.40121494262965, 50.65848003827662, 62.61938232589459 
-147.97824565460013, 4.616753453245425, 22.62980769004811, 156.69096782756048, 50.53988611245644, 62.62069852480643 
-148.87736174652207, 4.384027722819362, 22.62989877729243, 155.98139904463852, 50.42396017996567, 62.62198626014492 
-149.77747348515803, 4.156202459054589, 22.629983424478464, 155.2724825402508, 50.310717329133894, 62.62324526609822 
-150.67858714827977, 3.9333391704471845, 22.630061893436494, 154.56419300660434, 50.2001722887894, 62.624475284824825 
-151.58070699251027, 3.7154983659239957, 22.630134445754486, 153.85650585681952, 50.0923394277169, 62.6256760663767 
-152.48383526493052, 3.5027395228093345, 22.630201342346368, 153.14939720058916, 49.9872327540494, 62.626847368621476 
-153.38797221666036, 3.2951210543219753, 22.63026284302338, 152.44284382037705, 49.884865914600724, 62.62798895716343 
-154.29311611848158, 3.092700276666479, 22.630319206069167, 151.73682314812837, 49.78525219414481, 62.62910060526389 
-155.1992632785693, 2.895533375785191, 22.630370687819077, 151.03131324246644, 49.68840451464767, 62.63018209376085 
-156.106408062391, 2.7036753738395047, 22.63041754224432, 150.3262927663523, 49.594335434458046, 62.63123321098834 
-157.0145429148303, 2.5171800954909074, 22.63046002054146, 149.62174096518254, 49.50305714746208, 62.63225375269554 
-157.9236583845858, 2.336100134054189, 22.630498370727825, 148.91763764530373, 49.41458148220758, 62.63324352196603 
-158.833743150891, 2.1604868175969956, 22.63053283724335, 148.21396315292162, 49.328919901003076, 62.634202329137125 
-159.74478405259495, 1.9903901750612876, 22.63056366055936, 147.51069835338447, 49.24608349899656, 62.63512999171966 
-160.6567661196368, 1.8258589024836567, 22.630591076794918, 146.8078246108206, 49.166083003238896, 62.63602633431858 
-161.56967260694148, 1.6669403293927794, 22.630615317341004, 146.10532376811156, 49.08892877173656, 62.636891188553975 
-162.4834850307557, 1.5136803854628302, 22.630636608493386, 145.40317812718223, 49.01463079249815, 62.63772439298348 
-163.39818320743768, 1.366123567502649, 22.630655171094265, 144.70137042959078, 48.94319868257905, 62.63852579302563 
-164.31374529470526, 1.2243129068607586, 22.63067122018351, 143.99988383740146, 48.87464168712832, 62.63929524088448 
-165.23014783533887, 1.0882899373266388, 22.630684964659704, 143.29870191432428, 48.80896867844195, 62.640032595476086 
-166.14736580332985, 0.9580946636084559, 22.63069660695162, 142.59780860710578, 48.746188155026246, 62.64073772235632 
-167.0653726524538, 0.8337655304670846, 22.630706342700428, 141.89718822715673, 48.68630824067487, 62.64141049365066 
-167.98414036724193, 0.7153393925858305, 22.630714360453155, 141.19682543240168, 48.62933668356334, 62.64205078798612 
-168.90363951631468, 0.6028514852541399, 22.630720841367747, 140.49670520933708, 48.57528085536399, 62.64265849042508 
-169.82383930803257, 0.49633539594244, 22.630725958930142, 139.79681285528457, 48.5241477503849, 62.64323349240163 
-170.74470764841183, 0.39582303684390724, 22.630729878683745, 139.09713396082694, 48.47594398473551, 62.64377569166029 
-171.6662112012425, 0.30134461845687793, 22.630732757971618, 138.39765439241415, 48.43067579552208, 62.644284992197356 
-172.58831545034, 0.21292862427996775, 22.63073474569181, 137.6983602751276, 48.3883490400755, 62.64476130420479 
-173.51098476385081, 0.13060178668911723, 22.63073598206599, 136.9992379755915, 48.348969195213954, 62.64520454401721 
-174.43418246052696, 0.05438906406358567, 22.630736598421997, 136.30027408501996, 48.312541356543186, 62.645614634061545 
-175.35787087787403, -0.015686380775301968, 22.63073671699014, 135.60145540238906, 48.279070237796056, 62.64599150280989 
-176.2820114420716, -0.07960320075190677, 22.630736450714018, 134.9027689177237, 48.248560170214, 62.64633508473568 
-177.20656473955663, -0.13734188329327415, 22.63073590307576, 134.20420179548904, 48.22101510197195, 62.64664532027266 
-178.13149059015365, -0.18888476760182643, 22.63073516793595, 133.5057413580767, 48.19643859764866, 62.646922155777574 
-179.0567481216297, -0.23421606039408024, 22.63073432938874, 132.80737506937606, 48.17483383774392, 62.647165543496286 
-179.98229584554485, -0.2733218500599636, 22.630733461631934, 132.10909051842123, 48.15620361824428, 62.64737544153297 
179.09190826573533, -0.3061901192015573, 22.6307326288525, 131.41087540310494, 48.140550350238435, 62.64755181382352 
178.16590670100442, -0.33281075551477124, 22.630731885127577, 130.71271751395008, 48.1278760595834, 62.647694630111786 
177.2397423313006, -0.3531755609820029, 22.630731274341112, 130.01460471792987, 48.11818238662257, 62.64780386593017 
176.3134583302602, -0.36727825934882247, 22.630730830116224, 129.31652494232839, 48.11147058595649, 62.6478795025835 
175.38709809388956, -0.37511450186267403, 22.63073057576336, 128.6184661586327, 48.10774152626674, 62.6479215271367 
174.46070515990834, -0.3766818712566029, 22.630730524244434, 127.9204163664481, 48.106995690193905, 62.647929932406484 
173.53432312681957, -0.3719798839662874, 22.63073067815282, 127.2223635774278, 48.10923317426947, 62.647904716956376 
172.60799557286185, -0.3610099905737549, 22.630731029709366, 126.5242957992092, 48.114453688902316, 62.647845885095926 
171.681765975001, -0.34377557447651835, 22.630731560774418, 125.82620101934798, 48.122656558419465, 62.64775344688347 
170.7556776281173, -0.3202819487860657, 22.630732242875705, 125.12806718924158, 48.133840721161214, 62.64762741813284 
169.8297735645437, -0.29053635146483103, 22.630733037252224, 124.42988220803392, 48.14800472963025, 62.64746782042368 
168.90409647410962, -0.25454793871607506, 22.63073389491399, 123.73163390649275, 48.165146750694404, 62.647274681115626 
167.97868862484188, -0.21232777664612681, 22.630734756717555, 123.0333100308512, 48.1852645658423, 62.647048033366055 
167.05359178447142, -0.1638888312235808, 22.630735553457164, 122.33489822660471, 48.208355571491396, 62.64678791615188 
166.12884714289186, -0.10924595656473635, 22.63073620597159, 121.63638602225473, 48.23441677934733, 62.64649437429439 
165.2044952357108, -0.04841588157978675, 22.630736625266277, 120.93776081299036, 48.263444816813454, 62.64616745848835 
164.2805758690308, 0.0185828049816846, 22.63073671265079, 120.23900984429869, 48.295435927449624, 62.64580722533391 
163.35712804559097, 0.09172967104231448, 22.630736359891362, 119.54012019549468, 48.330385971478584, 62.6454137373727 
162.43418989239535, 0.171002459218265, 22.630735449378257, 118.84107876316128, 48.36829042633851, 62.64498706312664 
161.51179858994692, 0.2563771062985596, 22.630733854307856, 118.14187224448952, 48.40914438728014, 62.644527277140526 
160.58999030320012, 0.34782776412691435, 22.630731438879067, 117.4424871205097, 48.452942568006456, 62.64403446002745 
159.66880011433733, 0.4453268218272162, 22.63072805850397, 116.74290963920194, 48.49967930135303, 62.64350869851769 
158.7482619574676, 0.5488449293101547, 22.630723560032262, 116.04312579847692, 48.54934854000691, 62.642950085510286 
157.82840855533763, 0.6583510219956545, 22.6307177819893, 115.34312132901508, 48.6019438572616, 62.64235872012766 
156.90927135813777, 0.7738123466829652, 22.630710554827367, 114.64288167695327, 48.657458447805894, 62.64173470777301 
155.99088048447672, 0.8951944884976873, 22.630701701189935, 113.94239198640717, 48.7158851285435, 62.64107816019029 
155.0732646645913, 1.022461398842808, 22.630691036188388, 113.24163708181753, 48.77721633944131, 62.640389195526645 
154.15645118584814, 1.1555754242790024, 22.630678367691015, 112.54060145010739, 48.841444144402764, 62.63966793839747 
153.24046584058615, 1.294497336257629, 22.63066349662383, 111.8392692226378, 48.908560232163495, 62.63891451995342 
152.32533287633993, 1.4391863616287475, 22.630646217282745, 111.13762415694805, 48.97855591720606, 62.63812907794971 
151.41107494847648, 1.5896002138451433, 22.630626317656805, 110.43564961826671, 49.05142214069014, 62.637311756817105 
150.4977130752674, 1.745695124782905, 22.63060357976199, 109.73332856077887, 49.12714947139467, 62.63646270773499 
149.5852665954125, 1.9074258770982762, 22.630577779985085, 109.03064350863428, 49.20572810666829, 62.63558208870582 
148.67375312802113, 2.0747458370406315, 22.63054868943739, 108.32757653668074, 49.287147873384065, 62.63467006463105 
147.76318853505038, 2.2476069876411477, 22.630516074317416, 107.62410925090627, 49.37139822889444, 62.633726807388385 
146.8535868861912, 2.425959962197294, 22.630479696282507, 106.92022276857313, 49.45846826198211, 62.63275249591001 
145.94496042618636, 2.6097540779738417, 22.630439312828585, 106.21589769802522, 49.54834669380261, 62.6317473162619 
145.03731954455642, 2.79893737004158, 22.63039467767767, 105.51111411815124, 49.64102187881377, 62.63071146172355 
144.13067274770418, 2.9934566251764156, 22.630345541172634, 104.80585155748331, 49.73648180568743, 62.62964513286848 
143.22502663336073, 3.193257415742322, 22.63029165067863, 104.10008897291146, 49.83471409819846, 62.62854853764497 
142.32038586732983, 3.3982841334834046, 22.630232750990714, 103.39380472799253, 49.93570601608597, 62.62742189145691 
141.41675316248362, 3.6084800231516576, 22.63016858474711, 102.68697657083166, 50.039444455881224, 62.62626541724454 
140.51412925995436, 3.823787215899047, 22.6300988928475, 101.97958161151347, 50.145915951697205, 62.62507934556513 
139.61251291246546, 4.044146762364251, 22.630023414875936, 101.27159629905897, 50.25510667597356, 62.623863914672754 
138.71190086973743, 4.269498665386704, 22.629941889527693, 100.56299639788298, 50.36700244017154, 62.62261937059781 
137.81228786590313, 4.499781912282599, 22.629854055039498, 99.8537569637265, 50.48158869541265, 62.6213459672254 
136.9136666088614, 4.734934506619912, 22.629759649622688, 99.14385231903647, 50.59885053305449, 62.62004396637273 
136.01602777149597, 4.974893499432011, 22.62965841189858, 98.43325602776468, 50.71877268519785, 62.61871363786496 
135.11935998468343, 5.219595019811706, 22.629550081335548, 97.72194086955636, 50.841339525117576, 62.617355259609845 
134.2236498320124, 5.468974304830315, 22.629434398687295, 97.00987881329735, 50.96653506761101, 62.615969117670396 
133.32888184613404, 5.722965728728897, 22.62931110643156, 96.29704098998803, 51.094342969256054, 62.61455550633562 
132.43503850666232, 5.981502831331476, 22.629179949208925, 95.58339766490998, 51.22474652857199, 62.61311472818914 
131.54210023954275, 6.24451834563263, 22.6290406742609, 94.86891820905082, 51.35772868607508, 62.61164709417542 
130.65004541780638, 6.511944224514791, 22.628893031866884, 94.15357106975017, 51.49327202422089, 62.6101529236634 
129.758850363627, 6.783711666552945, 22.62873677577941, 93.43732374052925, 51.6313587672253, 62.60863254450713 
128.86848935159938, 7.059751140867542, 22.62857166365692, 92.72014273006376, 51.77197078075539, 62.60708629310376 
127.97893461315661, 7.339992410988583, 22.628397457493797, 92.00199353025904, 51.915089571481616, 62.605514514448 
127.09015634204712, 7.62436455769703, 22.628213924046776, 91.28284058338429, 52.06069628648181, 62.60391756218312 
126.20212270079152, 7.912796000812011, 22.62802083525749, 90.5626472482203, 52.208771712487625, 62.60229579864863 
125.31479982804274, 8.205214519894758, 22.627817968670225, 89.84137576517476, 52.35929627496368, 62.60064959492369 
124.42815184677436, 8.501547273843224, 22.627605107844698, 89.11898722031492, 52.51225003700886, 62.59897933086676 
123.54214087322448, 8.801720819353104, 22.627382042763074, 88.39544150826794, 52.66761269806939, 62.59728539515107 
122.65672702652533, 9.10566112822417, 22.627148570230748, 87.67069729393475, 52.82536359245259, 62.59556818529528 
121.77186843895193, 9.41329360349244, 22.626904494270402, 86.9447119729628, 52.98548168762971, 62.59382810768985 
120.8875212667258, 9.724543094371652, 22.62664962650875, 86.21744163091962, 53.14794558231617, 62.59206557761858 
120.00363970131434, 10.039333909989198, 22.62638378655552, 85.48884100110759, 53.31273350431655, 62.59028101927489 
119.12017598116893, 10.357589831904196, 22.626106802374085, 84.758863420957, 53.47982330812166, 62.58847486577328 
118.23708040384999, 10.679234125397235, 22.6258185106434, 84.0274607869329, 53.649192472244074, 62.5866475591551 
117.35430133849074, 11.004189549523357, 22.625518757110523, 83.29458350788781, 53.82081809627817, 62.58479955038911 
116.47178523855628, 11.332378365922061, 22.62520739693352, 82.56018045678978, 53.99467689767036, 62.582931299366074 
115.58947665485857, 11.663722346379352, 22.6248842950141, 81.8241989207534, 54.17074520818384, 62.58104327488775 
114.70731824879422, 11.99814277913948, 22.62454932631958, 81.08658454929676, 54.34899897004244, 62.579135954649715 
113.82525080577489, 12.335560473964938, 22.624202376193843, 80.34728130074632, 54.52941373173669, 62.57720982521808 
112.94321324882739, 12.675895765945624, 22.623843340656666, 79.60623138670704, 54.71196464347516, 62.575265382000104 
112.06114265234498, 13.019068518059186, 22.62347212669124, 78.8633752145132, 54.896626452262566, 62.57330312920807 
111.17897425597664, 13.36499812248651, 22.623088652519343, 78.1186513275712, 55.08337349658625, 62.57132357981684 
110.2966414786479, 13.713603500687563, 22.622692847863803, 77.3719963435032, 55.272179700690884, 62.56932725551463 
109.41407593271211, 14.064803102244362, 22.622284654197927, 76.62334488999673, 55.46301856842096, 62.567314686647116 
108.53120743823695, 14.418514902479448, 22.621864024981573, 75.8726295382619, 55.65586317660936, 62.56528641215446 
107.64796403743823, 14.774656398859245, 22.621430925883455, 75.11978073399538, 55.850686167989444, 62.56324297950149 
106.76427200927847, 15.133144606193639, 22.620985334989392, 74.36472672574554, 56.047459743606815, 62.5611849446007 
105.88005588425544, 15.493896050643828, 22.620527242996285, 73.60739349057111, 56.24615565470598, 62.55911287172816 
104.99523845941172, 15.856826762552663, 22.62005665339143, 72.84770465688138, 56.44674519406584, 62.557027333431954 
