# MEX_intpoint_lon [deg], MEX_intpoint_lat [deg], MEX_intpoint_angle [deg], TGO_intpoint_lon [deg], TGO_intpoint_lat [deg], TGO_intpoint_angle [deg] 
-103.69848014777753, 20.362760118603596, 22.160272809079913, -141.18621103695833, 58.81283963824124, 62.5328072755046 
-104.61168038952597, 20.003634950556055, 22.16083873911775, -141.967093940875, 58.582846988827264, 62.535105463120644 
-105.5232006504409, 19.645462622947637, 22.16139489162186, -142.74456910822272, 58.35444004671881, 62.5373974851245 
-106.43312847316888, 19.288331635334004, 22.161941108861896, -143.51875002445277, 58.127653841378255, 62.5396826478996 
-107.34155019303111, 18.932329837785115, 22.16247724494283, -144.28974642082136, 57.90252280026413, 62.54196026492483 
-108.24855090717287, 18.577544445430267, 22.163003165824527, -145.05766441025196, 57.67908076687929, 62.54422965696672 
-109.15421444521782, 18.224062052380457, 22.16351874932691, -145.82260661776155, 57.45736101777096, 62.546490152263985 
-110.05862334130795, 17.871968644990147, 22.164023885121072, -146.58467230566103, 57.237396278535506, 62.54874108670325 
-110.9618588074193, 17.521349614421837, 22.16451847470593, -147.3439574937374, 57.0192187388775, 62.550981803986886 
-111.86400070784953, 17.172289768479796, 22.16500243137095, -148.10055507461774, 56.80286006677031, 62.55321165579203 
-112.76512753478191, 16.82487334268102, 22.165475680144738, -148.854554924512, 56.588351421762916, 62.55543000192187 
-113.66531638483639, 16.479184010533615, 22.165938157729666, -149.60604400952326, 56.37572346747548, 62.557636210448095 
-114.56464293652618, 16.135304892994693, 22.166389812422796, -150.35510648771046, 56.16500638332379, 62.55982965784553 
-115.46318142854555, 15.793318567081657, 22.16683060402297, -151.10182380708167, 55.95622987551073, 62.5620097291182 
-116.36100463881954, 15.453307073612816, 22.167260503724567, -151.8462747996897, 55.749423187321064, 62.56417581791727 
-117.25818386425561, 15.115351924054467, 22.167679493997706, -152.5885357719969, 55.544615108753824, 62.56632732665101 
-118.15478890114105, 14.779534106453893, 22.1680875684555, -153.328680591669, 55.341833985524985, 62.5684636665864 
-119.05088802613844, 14.445934090438692, 22.168484731708176, -154.06678077095276, 55.14110772747133, 62.570584257943004 
-119.94654797783608, 14.11463183126511, 22.168870999204554, -154.80290554678564, 54.94246381638506, 62.57268852997864 
-120.84183393881764, 13.785706772898997, 22.169246397061006, -155.53712195778152, 54.74592931330698, 62.57477592106729 
-121.73680951822013, 13.459237850115132, 22.169610961878153, -156.26949491822842, 54.55153086530503, 62.57684587876936 
-122.63153673475571, 13.135303489601682, 22.169964740545563, -157.0000872892318, 54.359294711763354, 62.57889785989417 
-123.52607600017826, 12.813981610058587, 22.170307790034787, -157.7289599471291, 54.16924669020604, 62.58093133055484 
-124.42048610318118, 12.495349621279761, 22.170640177180864, -158.4561718492979, 53.98141224167848, 62.58294576621584 
-125.3148241937178, 12.1794844222109, 22.170961978452873, -159.18178009747396, 53.7958164157082, 62.584940651733355 
-126.20914576774165, 11.866462397976115, 22.171273279713546, -159.9058399986912, 53.612483874866044, 62.58691548138811 
-127.10350465236824, 11.556359415868018, 22.171574175968495, -160.62840512395113, 53.43143889894742, 62.5888697589116 
-127.99795299146507, 11.249250820297904, 22.171864771105334, -161.349527364724, 53.252705388792926, 62.590802997505115 
-128.8925412316813, 10.94521142670384, 22.17214517762299, -162.06925698738067, 53.07630686976597, 62.59271471985224 
-129.78731810893285, 10.644315514416592, 22.172415516351684, -162.7876426856488, 52.90226649490536, 62.59460445812471 
-130.68233063536348, 10.346636818484512, 22.172675916163833, -163.50473163118474, 52.7306070477686, 62.59647175398176 
-131.57762408680605, 10.05224852046084, 22.17292651367642, -164.2205695223461, 52.56135094498261, 62.59831615856361 
-132.4732419907723, 9.761223238158035, 22.173167452945087, -164.93520063124922, 52.39452023851625, 62.60013723247836 
-133.3692261150038, 9.473633014376066, 22.17339888515046, -165.64866784918942, 52.23013661768987, 62.60193454578366 
-134.26561645661954, 9.189549304613257, 22.173620968277067, -166.3610127305006, 52.068221410935166, 62.603707677962 
-135.16245123189935, 8.90904296376997, 22.173833866785333, -167.07227553492643, 51.908795587319275, 62.60545621789137 
-136.05976686674643, 8.632184231857803, 22.174037751277055, -167.78249526857235, 51.75187975784553, 62.60717976380984 
-136.95759798787336, 8.359042718728611, 22.174232798154776, -168.49170972350473, 51.59749417654344, 62.6088779232756 
-137.8559774147604, 8.08968738783982, 22.174419189275643, -169.19995551606084, 51.445658741359715, 62.61055031312188 
-138.75493615243715, 7.824186539074441, 22.1745971116, -169.9072681239299, 51.29639299486148, 62.61219655940745 
-139.65450338513998, 7.5626077906366564, 22.174766756835385, -170.61368192206362, 51.14971612476308, 62.613816297362476 
-140.5547064709005, 7.305018060045341, 22.174928321076276, -171.3192302174714, 51.00564696428666, 62.61540917133027 
-141.4555709371225, 7.051483544250793, 22.17508200444015, -172.02394528295352, 50.86420399236682, 62.616974834705104 
-142.3571204772044, 6.802069698901488, 22.175228010700234, -172.72785838982261, 50.72540533370929, 62.61851294986608 
-143.25937694826825, 6.5568412167902705, 22.175366546915534, -173.4309998396627, 50.58926875871282, 62.62002318810785 
-144.16236037005464, 6.31586200551144, 22.17549782305861, -174.133398995171, 50.455811683263654, 62.62150522956745 
-145.06608892504494, 6.079195164362468, 22.175622051641533, -174.8350843101282, 50.32505116841133, 62.62295876314873 
-145.9705789598719, 5.846902960526305, 22.175739447340593, -175.53608335853818, 50.197003919934204, 62.6243834864435 
-146.8758449880809, 5.619046804572385, 22.175850226620202, -176.23642286297914, 50.07168628780313, 62.62577910565005 
-147.7818996943011, 5.395687225316749, 22.175954607356513, -176.9361287222035, 49.94911426555112, 62.62714533548972 
-148.6887539398886, 5.176883844083743, 22.176052808461257, -177.63522603802477, 49.829303489556736, 62.62848189912095 
-149.59641677009907, 4.962695348414045, 22.17614504950629, -178.33373914152588, 49.7122692382485, 62.62978852805155 
-150.50489542284927, 4.7531794652656805, 22.176231550349314, -179.03169161862357, 49.598026431237855, 62.631064962049365 
-151.41419533912236, 4.548392933756981, 22.17631253076134, -179.7291063350204, 49.48658962838723, 62.63231094905151 
-152.32432017507182, 4.348391477502062, 22.1763882100563, 179.57399453942367, 49.377973028820286, 62.63352624507241 
-153.23527181587494, 4.1532297765917665, 22.176458806723367, 178.8775895068716, 49.27219046988063, 62.634710614110695 
-154.14705039138528, 3.9629614392743777, 22.17652453806243, 178.18165771821265, 49.169255426045446, 62.63586382805583 
-155.05965429362948, 3.7776389733924565, 22.17658561982322, 177.4861789502619, 49.06918100780009, 62.636985666593766 
-155.9730801961908, 3.597313757633647, 22.176642265848574, 176.79113358342974, 48.97197996047954, 62.63807591711254 
-156.8873230755176, 3.4220360126547753, 22.17669468772223, 176.09650257983785, 48.87766466308244, 62.63913437460804 
-157.80237623419148, 3.25185477214005, 22.1767430944218, 175.402267461856, 48.78624712706323, 62.64016084158942 
-158.7182313261844, 3.0868178538552993, 22.176787691977154, 174.70841029103943, 48.69773899510775, 62.64115512798553 
-159.63487838413045, 2.926971830761264, 22.176828683134858, 174.01491364744314, 48.612151539897376, 62.642117051051464 
-160.55230584863227, 2.772362002250031, 22.17686626702896, 173.32176060929388, 48.529495662866715, 62.64304643527637 
-161.47050059961643, 2.6230323655692662, 22.17690063885869, 172.62893473299934, 48.449781892959685, 62.6439431122919 
-162.3894479897477, 2.479025587499637, 22.176931989573397, 171.936420033476, 48.37302038538857, 62.64480692078215 
-163.3091318799053, 2.3403829763510564, 22.1769605055652, 171.2442009647773, 48.29922092040046, 62.64563770639516 
-164.22953467671886, 2.2071444543437297, 22.17698636836977, 170.55226240100475, 48.2283929020554, 62.646435321655574 
-165.15063737215527, 2.0793485304398622, 22.17700975437553, 169.86058961748603, 48.16054535702039, 62.64719962587982 
-166.07241958514135, 1.9570322736917847, 22.177030834541842, 169.16916827220325, 48.09568693338316, 62.647930485092544 
-166.99485960520155, 1.8402312871715747, 22.177049774126395, 168.4779843874571, 48.03382589948947, 62.6486277719461 
-167.91793443808206, 1.7289796825470447, 22.177066732422198, 167.78702433175144, 47.974970142807535, 62.64929136564152 
-168.8416198533271, 1.6233100553675608, 22.177081862504608, 167.09627480188504, 47.91912716882321, 62.64992115185267 
-169.76589043376657, 1.5232534611225077, 22.177095310988598, 166.40572280523673, 47.866304099968936, 62.650517022652906 
-170.69071962686704, 1.4288393921336664, 22.177107217796674, 165.71535564223097, 47.81650767458987, 62.65107887644451 
-171.6160797978918, 1.340095755341237, 22.17711771593775, 165.02516088897144, 47.769744245949916, 62.651606617891225 
-172.5419422848097, 1.2570488510415159, 22.177126931297224, 164.33512638003126, 47.726019781280655, 62.65210015785391 
-173.468277454885, 1.1797233526323023, 22.17713498243856, 163.64524019138747, 47.68533986087573, 62.652559413329364 
-174.3950547628757, 1.1081422874196896, 22.177141980416643, 162.95549062348928, 47.64770967723318, 62.65298430739288 
-175.32224281076054, 1.0423270185377367, 22.177148028603195, 162.26586618444927, 47.61313403424798, 62.65337476914387 
-176.2498094089096, 0.9822972280297165, 22.177153222524375, 161.57635557334712, 47.58161734645715, 62.65373073365557 
-177.1777216386084, 0.9280709011368364, 22.17715764971086, 160.88694766363565, 47.55316363833919, 62.65405214192817 
-178.10594591583887, 0.8796643118373607, 22.177161389560663, 160.1976314866401, 47.52777654366975, 62.654338940845896 
-179.03444805621695, 0.837092009675843, 22.17716451321469, 159.50839621514024, 47.50545930493541, 62.654591083138 
-179.96319334098135, 0.8003668079188591, 22.177167083445394, 158.81923114702693, 47.4862147728067, 62.65480852734398 
179.1078534160762, 0.7694997730699881, 22.177169154558534, 158.13012568902354, 47.47004540567208, 62.654991237782376 
178.17872780085236, 0.7445002157733613, 22.177170772308276, 157.44106934046388, 47.456953269233814, 62.65513918452417 
177.24946573046182, 0.7253756831310872, 22.17717197382569, 156.75205167711772, 47.44694003616691, 62.65525234337015 
176.32010338417516, 0.7121319524561665, 22.177172787560668, 156.0630623350554, 47.44000698584187, 62.65533069583274 
175.39067713388596, 0.704773026478361, 22.177173233237557, 155.3740909945434, 47.436155004112024, 62.65537422912161 
174.4612234742322, 0.7033011300166592, 22.177173321824316, 154.68512736396212, 47.435384583166055, 62.65538293613433 
173.53177895249607, 0.707716708127496, 22.177173055515386, 153.9961611637385, 47.43769582144578, 62.655356815450624 
172.6023800984089, 0.7180184257341977, 22.177172427728284, 153.307182110284, 47.443088423629796, 62.65529587133148 
171.67306335398817, 0.7342031687385177, 22.177171423113855, 152.61817989993136, 47.45156170068274, 62.655200113722344 
170.74386500353208, 0.7562660466111969, 22.17717001758029, 151.92914419286032, 47.46311456997014, 62.65506955826059 
169.81482110389834, 0.7842003964542398, 22.177168178330692, 151.24006459700584, 47.477745555438645, 62.65490422628767 
168.8859674151913, 0.8179977885234699, 22.17716586391435, 150.55093065193878, 47.49545278786092, 62.65470414486514 
167.95733933198042, 0.8576480331957884, 22.177163024291524, 149.8617318127124, 47.51623400514502, 62.65446934679508 
167.02897181517127, 0.9031391893616334, 22.17715960091165, 149.17245743366485, 47.54008655270703, 62.65419987064491 
166.10089932464655, 0.9544575742191495, 22.177155526804945, 148.48309675217013, 47.56700738390631, 62.65389576077619 
165.17315575279278, 1.0115877744426507, 22.177150726687227, 147.79363887232807, 47.59699306054212, 62.653557067377484 
164.24577435902353, 1.0745126586945504, 22.17714511707778, 147.1040727485849, 47.63003975341044, 62.653183846501484 
163.31878770540743, 1.1432133914458757, 22.17713860643024, 146.4143871692752, 47.66614324291942, 62.652776160105844 
162.39222759350312, 1.2176694480675445, 22.17713109527615, 145.72457074007536, 47.705298919762015, 62.652334076098235 
161.4661250025004, 1.2978586311509208, 22.177122476381125, 145.0346118673601, 47.74750178564406, 62.6518576683847 
160.5405100287604, 1.3837570880132974, 22.177112634913414, 144.34449874145116, 47.79274645406558, 62.65134701692221 
159.6154118268426, 1.4753393293409045, 22.177101448624516, 143.6542193197481, 47.841027151153675, 62.650802207774504 
158.69085855210133, 1.5725782489193931, 22.177088788041754, 142.96376130973138, 47.89233771654451, 62.65022333317149 
157.76687730492736, 1.6754451443991794, 22.17707451667246, 142.2731121518257, 47.94667160431192, 62.64961049157183 
156.84349407670578, 1.7839097390406904, 22.177058491219565, 141.58225900211377, 48.0040218839403, 62.64896378772914 
155.92073369755317, 1.8979402043825568, 22.177040561808223, 140.89118871488714, 48.06438124133887, 62.64828333276081 
154.9986197858918, 2.017503183773761, 22.177020572223253, 140.19988782502327, 48.127741979894516, 62.64756924422004 
154.07717469991232, 2.1425638167092385, 22.176998360157068, 139.5083425301756, 48.19409602156014, 62.64682164617043 
153.1564194909687, 2.273085763906877, 22.176973757467636, 138.81653867276341, 48.263434907975295, 62.64604066926358 
152.23637385894332, 2.4090312330627546, 22.17694659044642, 138.12446172174793, 48.335749801615705, 62.645226450818626 
151.3170561096141, 2.55036100522036, 22.17691668009557, 137.43209675418052, 48.41103148696822, 62.64437913490452 
150.39848311404694, 2.697034461688888, 22.176883842414302, 136.73942843650772, 48.48927037172745, 62.64349887242416 
149.48067027003336, 2.8490096114450894, 22.17684788869397, 136.04644100561782, 48.57045648801015, 62.64258582120052 
148.5636314655832, 3.0062431189528627, 22.176808625821373, 135.35311824961272, 48.65457949358346, 62.641640146064496 
147.64737904447986, 3.1686903323346463, 22.176765856590013, 134.6594434882882, 48.74162867310269, 62.64066201894437 
146.73192377389617, 3.3363053118287844, 22.17671938001887, 133.96539955330462, 48.83159293935434, 62.63965161895654 
145.81727481406466, 3.509040858467353, 22.176668991678167, 133.27096876802992, 48.92446083449981, 62.6386091324974 
144.90343968999113, 3.686848542909313, 22.176614484021822, 132.57613292703542, 49.020220531315076, 62.63753475333625 
143.9904242651928, 3.869678734364703, 22.17655564672611, 131.88087327522413, 49.11885983442145, 62.636428682708804 
143.07823271743916, 4.057480629546241, 22.176492267034032, 131.18517048657083, 49.22036618150237, 62.63529112941134 
142.16686751646768, 4.250202281585867, 22.176424130104976, 130.48900464245102, 49.324726644501006, 62.63412230989504 
141.25632940364224, 4.447790628854737, 22.17635101936929, 129.79235520953696, 49.43192793079321, 62.632922448360404 
140.34661737351826, 4.65019152362682, 22.176272716887077, 129.09520101723518, 49.5419563843302, 62.63169177685163 
139.4377286572734, 4.8573497605271765, 22.176189003711013, 128.39752023464143, 49.654797986745194, 62.63043053535053 
138.52965870796052, 5.069209104708105, 22.17609966025249, 127.69929034698563, 49.7704383584181, 62.629138971869764 
137.62240118753516, 5.285712319697631, 22.176004466650703, 127.00048813154007, 49.88886275949168, 62.62781734254544 
136.71594795560782, 5.506801194866715, 22.175903203144188, 126.30108963296156, 50.01005609083338, 62.62646591172845 
135.8102890598671, 5.7324165724635465, 22.175795650444286, 125.60107013803682, 50.13400289493554, 62.625084952074616 
134.90541272812, 5.962498374164975, 22.175681590110063, 124.90040414980055, 50.26068735674772, 62.62367474463319 
134.00130536189127, 6.196985627097351, 22.175560804924185, 124.19906536099202, 50.390093304433606, 62.622235578933726 
133.09795153152373, 6.435816489281078, 22.17543307926927, 123.49702662681621, 50.522204210045494, 62.62076775307088 
132.1953339727195, 6.678928274455247, 22.175298199504155, 122.79425993697305, 50.65700319010856, 62.61927157378681 
131.29343358446212, 6.926257476240828, 22.175155954339694, 122.09073638691702, 50.79447300610731, 62.61774735655143 
130.39222942825734, 7.1777397916033845, 22.17500613521343, 121.38642614830722, 50.93459606486592, 62.61619542563957 
129.49169872863243, 7.433310143577928, 22.174848536662854, 120.68129843860686, 51.07735441881422, 62.614616114205454 
128.59181687483195, 7.692902703221433, 22.17468295669654, 119.97532148978834, 51.22272976613061, 62.61300976435393 
127.6925574236492, 7.956450910760118, 22.17450919716278, 119.26846251609902, 51.370703450752956, 62.611376727208146 
126.7938921033342, 8.223887495901225, 22.174327064115317, 118.56068768084025, 51.52125646224808, 62.60971736297388 
125.8957908185181, 8.495144497281187, 22.174136368175407, 117.85196206210928, 51.674369435530465, 62.60803204099959 
124.99822165609703, 8.770153281023987, 22.173936924890093, 117.1422496174536, 51.830022650419835, 62.60632113983285 
124.10115089201962, 9.048844558386124, 22.17372855508593, 116.43151314738188, 51.98819603102744, 62.60458504727198 
123.20454299892344, 9.331148402466342, 22.173511085217797, 115.71971425767609, 52.1488691449604, 62.60282416041353 
122.30836065456879, 9.616994263960693, 22.173284347712386, 115.00681332044456, 52.312021202332616, 62.601038885694805 
121.41256475102068, 9.906310985945332, 22.173048181305806, 114.29276943385466, 52.47763105457091, 62.5992296389315 
120.51711440453099, 10.199026817671761, 22.172802431374894, 113.57754038047943, 52.645677193004225, 62.59739684535008 
119.62196696607842, 10.49506942736096, 22.17254695026182, 112.86108258419141, 52.816137747223216, 62.595540939615084 
118.72707803252361, 10.794365913985082, 22.172281597591574, 112.14335106553158, 52.98899048319726, 62.59366236585033 
117.83240145834324, 11.09684281802705, 22.17200624058169, 111.42429939548046, 53.16421280113528, 62.591761577654864 
116.93788936790827, 11.402426131210465, 22.171720754344186, 110.70387964755308, 53.341781733075855, 62.589839038112764 
116.04349216827598, 11.711041305194044, 22.171425022178912, 109.98204234813727, 53.521673940192244, 62.58789521979668 
115.14915856246984, 12.022613259226453, 22.171118935858164, 109.25873642499091, 53.703865709796446, 62.58593060476531 
114.25483556322423, 12.337066386759425, 22.1708023959021, 108.53390915380913, 53.88833295202616, 62.58394568455423 
113.36046850717642, 12.654324561018408, 22.170475311844555, 107.80750610277, 54.075051196197954, 62.58194096016021 
112.4660010694917, 12.974311139532183, 22.170137602488925, 107.07947107496173, 54.263995586808576, 62.579916942018365 
111.57137527891308, 13.296948967623825, 22.169789196153772, 106.3497460485913, 54.455140879166215, 62.57787414997304 
110.67653153323067, 13.62216038086785, 22.169430030907805, 105.61827111486883, 54.64846143463202, 62.575813113240926 
109.78140861517194, 13.949867206519217, 22.169060054793864, 104.88498441345898, 54.84393121545166, 62.57373437036713 
108.88594370871827, 14.27999076392187, 22.1686792260417, 104.14982206538447, 55.04152377915558, 62.57163846917421 
107.99007241585856, 14.612451863906013, 22.16828751326916, 103.4127181032626, 55.241212272505585, 62.56952596670319 
107.09372877379668, 14.947170807184692, 22.167884895671477, 102.67360439875101, 55.442969424964005, 62.56739742914746 
106.19684527263423, 15.28406738176193, 22.167471363198544, 101.93241058707267, 55.64676754166122, 62.56525343177858 
105.29935287355633, 15.623060859366154, 22.16704691671965, 101.18906398848594, 55.85257849583505, 62.56309455886444 
104.4011810275537, 15.964069990924292, 22.166611568175757, 100.44348952655889, 56.060373720715226, 62.56092140357973 
