# MEX_intpoint_lon [deg], MEX_intpoint_lat [deg], MEX_intpoint_angle [deg], TGO_intpoint_lon [deg], TGO_intpoint_lat [deg], TGO_intpoint_angle [deg] 
-104.39776466395466, 20.526808056665548, 22.572049490847053, -164.42581215874296, 59.12955065738988, 62.52940778455874 
-105.29856229922453, 20.14605511756595, 22.5726655653885, -165.22407460318698, 58.90877249510419, 62.53160039494453 
-106.19765546376175, 19.766373346475394, 22.573270457976324, -166.01877945046039, 58.6894762640179, 62.53378739552433 
-107.09514070236925, 19.387853748060543, 22.573863997733202, -166.81004023738043, 58.4716974442709, 62.53596812400282 
-107.99111308490218, 19.010586651980557, 22.574446027320377, -167.59796691745282, 58.25547088770341, 62.538141924522535 
-108.88566618190646, 18.63466173250128, 22.575016402957196, -168.3826659824538, 58.04083083622411, 62.54030814784882 
-109.77889204157383, 18.260168027258175, 22.575574994424294, -169.16424057967916, 57.82781093917517, 62.54246615154718 
-110.67088116787627, 17.88719395513289, 22.576121685050555, -169.94279062499032, 57.616444269741024, 62.544615300153076 
-111.56172249975516, 17.5158273332102, 22.57665637168374, -170.7184129117877, 57.4067633404456, 62.54675496533449 
-112.45150339124712, 17.14615539278454, 22.577178964645, -171.4912012160424, 57.19880011778102, 62.54888452604661 
-113.34030959244058, 16.778264794386942, 22.577689387667355, -172.26124639751666, 56.99258603600823, 62.55100336867905 
-114.22822523116339, 16.412241641805515, 22.57818757781817, -173.02863649730256, 56.788152010168574, 62.553110887195714 
-115.11533279531241, 16.048171495074108, 22.578673485405954, -173.79345683180722, 56.58552844834332, 62.55520648326689 
-116.00171311574363, 15.686139382405335, 22.579147073871354, -174.5557900833109, 56.38474526319621, 62.55728956639401 
-116.8874453496492, 15.326229811046339, 22.579608319662896, -175.31571638722173, 56.18583188283302, 62.55935955402696 
-117.77260696435715, 14.968526777036466, 22.580057212097277, -176.07331341614898, 55.988817261009835, 62.561415871673844 
-118.6572737214954, 14.613113773848267, 22.580493753204756, -176.82865646091406, 55.7937298867208, 62.5634579530035 
-119.54151966147082, 14.260073799894021, 22.580917957559652, -177.58181850861527, 55.6005977931944, 62.56548523994078 
-120.42541708822053, 13.909489364882004, 22.581329852096285, -178.33287031785946, 55.409448566326205, 62.5674971827543 
-121.30903655420028, 13.56144249500764, 22.581729475910652, -179.081880491271, 55.220309352574255, 62.569493240137405 
-122.19244684558083, 13.216014736966486, 22.582116880048105, -179.82891554538483, 55.03320686634291, 62.57147287928181 
-123.0757149676313, 12.873287160776995, 22.58249212727725, 179.4259600219721, 54.848167396878665, 62.57343557594424 
-123.9589061302735, 12.533340361402884, 22.58285529185053, 178.6826836667108, 54.665216814701694, 62.57538081450642 
-124.84208373379883, 12.196254459165736, 22.58320645925172, 177.94119473582393, 54.48438057759437, 62.57730808802795 
-125.72530935474477, 11.862109098940584, 22.58354572593072, 177.20143440694878, 54.30568373616859, 62.57921689829275 
-126.60864273193414, 11.530983448128167, 22.583873199025987, 176.46334563005865, 54.1291509390313, 62.581106755848815 
-127.4921417526865, 11.202956193399208, 22.58418899607507, 175.72687307119435, 53.954806437567996, 62.582977180041674 
-128.37586243921587, 10.87810553620792, 22.584493244713506, 174.99196305815119, 53.78267409036222, 62.58482769904128 
-129.25985893523512, 10.556509187072859, 22.584786082362594, 174.2585635280391, 53.61277736726888, 62.5866578498631 
-130.14418349279262, 10.23824435862575, 22.585067655906435, 173.5266239766376, 53.44513935315819, 62.58846717838288 
-131.02888645937117, 9.92338775742977, 22.585338121358674, 172.79609540946822, 53.27978275134623, 62.59025523934569 
-131.91401626528457, 9.612015574571286, 22.585597643519378, 172.06693029451299, 53.11672988672794, 62.59202159636914 
-132.79961941141232, 9.304203475030215, 22.585846395622536, 171.33908251650647, 52.956002708627004, 62.59376582194122 
-133.6857404573163, 9.000026585836654, 22.586084558974623, 170.6125073327351, 52.797622793377116, 62.59548749741256 
-134.57242200978882, 8.699559483022927, 22.586312322584746, 169.88716133027748, 52.64161134664828, 62.59718621298359 
-135.459704711884, 8.40287617738251, 22.586529882786827, 169.16300238462327, 52.48798920553108, 62.598861567686505 
-136.34762723249062, 8.110050099049179, 22.58673744285436, 168.43998961961037, 52.33677684039183, 62.60051316936254 
-137.23622625650475, 7.821154080912265, 22.58693521260821, 167.71808336862256, 52.1879943565104, 62.60214063463454 
-138.12553647566756, 7.536260340885558, 22.587123408018027, 166.9972451369912, 52.04166149551275, 62.60374358887473 
-139.01559058013393, 7.255440463050213, 22.587302250797784, 166.27743756554847, 51.897797636608985, 62.60532166616873 
-139.90641925084148, 6.978765377694227, 22.58747196799589, 165.55862439528002, 51.7564217976482, 62.606874509274824 
-140.79805115275263, 6.706305340273181, 22.587632791580624, 164.84077043302779, 51.61755263599999, 62.608401769579835 
-141.69051292904308, 6.438129909319942, 22.587784958021196, 164.1238415181963, 51.481208449273296, 62.60990310705094 
-142.58382919631347, 6.1743079233330755, 22.587928707865167, 163.40780449041603, 51.34740717588161, 62.61137819018422 
-143.47802254090172, 5.914907476676474, 22.588064285312697, 162.69262715812073, 51.2161663954644, 62.612826695949565 
-144.3731135163749, 5.659995894525335, 22.5881919377882, 161.97827826799707, 51.08750332917338, 62.614248309732886 
-145.26912064228085, 5.4096397068962, 22.58831191550999, 161.26472747526583, 50.96143483983263, 62.61564272527498 
-146.16606040423926, 5.163904621801368, 22.588424471058495, 160.55194531475684, 50.8379774319807, 62.61700964460821 
-147.06394725545357, 4.922855497570676, 22.588529858943506, 159.83990317273987, 50.71714725180293, 62.61834877799017 
-147.9627936197229, 4.6865563143864035, 22.588628335171247, 159.12857325947706, 50.59896008696185, 62.61965984383544 
-148.86260989603457, 4.455070145079462, 22.588720156811544, 158.4179285824619, 50.48343136633318, 62.62094256864522 
-149.7634044648151, 4.228459125237914, 22.58880558156593, 157.70794292031295, 50.37057615965463, 62.62219668693497 
-150.6651836959166, 4.006784422681223, 22.58888486733713, 156.9985907972905, 50.26040917709492, 62.62342194116057 
-151.5679519584141, 3.7901062063563673, 22.58895827180044, 156.28984745840657, 50.152944768749386, 62.62461808164297 
-152.4717116322864, 3.578483614714223, 22.589026051977765, 155.5816888450994, 50.0481969240692, 62.62578486649166 
-153.37646312204959, 3.371974723627257, 22.5890884638146, 154.87409157144475, 49.946179271230356, 62.62692206152708 
-154.28220487241106, 3.1706365139116555, 22.589145761760744, 154.16703290087796, 49.84690507644864, 62.62802944020236 
-155.18893338600637, 2.9745248385193985, 22.58919819835522, 153.46049072340094, 49.75038724324668, 62.62910678352415 
-156.0966432432777, 2.7836943894677484, 22.589246023815903, 152.75444353325008, 49.65663831167861, 62.6301538799736 
-157.00532712454861, 2.5981986645757735, 22.58928948563448, 152.04887040700228, 49.565670457518245, 62.63117052542652 
-157.91497583434432, 2.4180899340790583, 22.58932882817717, 151.3437509820957, 49.477495491415716, 62.63215652307411 
-158.8255783280014, 2.243419207195754, 22.589364292291897, 150.63906543574478, 49.392124858028325, 62.633111683343415 
-159.73712174060532, 2.0742361987182814, 22.589396114922238, 149.9347944642287, 49.309569635130075, 62.63403582381864 
-160.64959141828805, 1.910589295706487, 22.589424528728806, 149.23091926253326, 49.22984053270503, 62.63492876916269 
-161.5629709519108, 1.7525255243591775, 22.589449761718516, 148.5274215043279, 49.152947892029246, 62.63579035103967 
-162.47724221315156, 1.600090517141648, 22.589472036882192, 147.82428332225925, 49.07890168474536, 62.63662040803834 
-163.3923853930078, 1.4533284802475783, 22.589491571841045, 147.12148728854405, 49.007711511934616, 62.637418785596665 
-164.3083790427204, 1.312282161474211, 22.589508578502503, 146.41901639584455, 48.93938660319017, 62.63818533592774 
-165.22520011711316, 1.1769928185896046, 22.589523262725734, 145.71685403841073, 48.87393581569573, 62.63891991794706 
-166.1428240203387, 1.0475001882709674, 22.589535823997515, 145.01498399347338, 48.811367633313466, 62.63962239720174 
-167.06122465400958, 0.9238424556924485, 22.5895464551186, 144.31339040287364, 48.75169016568466, 62.64029264580114 
-167.98037446768834, 0.8060562248403675, 22.589555341901267, 143.61205775491482, 48.69491114734671, 62.64093054234998 
-168.9002445117, 0.6941764896327725, 22.589562662878283, 142.91097086642245, 48.64103793686977, 62.6415359718829 
-169.8208044922228, 0.5882366059191316, 22.58956858902376, 142.21011486499933, 48.590077516016265, 62.64210882580209 
-170.74202282860486, 0.48826826443448845, 22.589573283486146, 141.50947517146363, 48.542036488926115, 62.64264900181658 
-171.66386671284567, 0.39430146478053923, 22.589576901333903, 140.80903748245666, 48.496921081330875, 62.64315640388459 
-172.5863021711735, 0.30636449050423314, 22.589579589314013, 140.1087877532093, 48.45473713979898, 62.64363094215826 
-173.5092941276411, 0.2244838853419807, 22.589581485623768, 139.40871218045538, 48.415490131015154, 62.64407253293134 
-174.43280646965516, 0.1486844306950674, 22.58958271969608, 138.7087971854809, 48.379185141096, 62.644481098589544 
-175.35680211534617, 0.07898912439900911, 22.589583411998614, 138.0090293972983, 48.34582687494421, 62.64485656756428 
-176.28124308267846, 0.015419160846349226, 22.589583673847013, 137.30939563593583, 48.315419655643254, 62.64519887428916 
-177.20609056019362, -0.042006087480929426, 22.589583607232484, 136.60988289583116, 48.287967423894784, 62.64550795915973 
-178.13130497927241, -0.09326908701680958, 22.5895833046639, 135.91047832932017, 48.263473737500114, 62.645783768496834 
-179.05684608779524, -0.13835415860581515, 22.58958284902474, 135.21116923021083, 48.24194177088773, 62.646026254512805 
-179.98267302507486, -0.1772474914421748, 22.58958231344496, 134.51194301743294, 48.223374314688016, 62.646235375281634 
179.09125560207067, -0.20993715541324345, 22.589581761188022, 133.81278721875472, 48.2077737753567, 62.64641109471207 
178.16498164224097, -0.23641311181131994, 22.589581245553187, 133.1136894545573, 48.19514217484797, 62.646553382525035 
177.2385473215133, -0.25666722238264883, 22.589580809793272, 132.41463742165752, 48.18548115033833, 62.64666221423369 
176.31199516478432, -0.2706932566871218, 22.589580487047908, 131.7156188771718, 48.17879195400205, 62.64673757112813 
175.38536791654096, -0.27848689774703417, 22.589580300292383, 131.01662162241112, 48.17507545283869, 62.64677944026292 
174.4587084612108, -0.280045745968431, 22.589580262302235, 130.31763348679914, 48.17433212855355, 62.64678781444891 
173.53205974324396, -0.27536932132331843, 22.589580375633574, 129.61864231180527, 48.17656207749102, 62.64676269224846 
172.60546468707994, -0.2644590637864618, 22.5895806326191, 128.91963593488384, 48.181765010621255, 62.64670407797465 
171.6789661171525, -0.24731833202535294, 22.589581015379935, 128.22060217341132, 48.189940253580154, 62.64661198169393 
170.7526066780869, -0.22395240034737168, 22.589581495853214, 127.52152880861279, 48.20108674676253, 62.64648641923271 
169.82642875524155, -0.19436845391291935, 22.589582035835356, 126.82240356946983, 48.21520304546815, 62.646327412187595 
168.9004743957458, -0.1585755822288351, 22.589582587041, 126.12321411660079, 48.23228732010036, 62.646134987939384 
167.9747852301822, -0.11658477094101714, 22.589583091177523, 125.42394802610528, 48.25233735641649, 62.64590917967054 
167.04940239506055, -0.0684088919504167, 22.589583480035063, 124.7245927733639, 48.275350555829455, 62.64565002638659 
166.1243664562253, -0.014062691881201765, 22.589583675591815, 124.02513571678496, 48.30132393575968, 62.645357572940895 
165.1997173333359, 0.0464372210652617, 22.58958359013467, 123.3255640814887, 48.33025413003611, 62.64503187006284 
164.27549422555427, 0.11307239183264436, 22.58958312639475, 122.62586494292017, 48.362137389345285, 62.644672974389806 
163.35173553856805, 0.18582253476542507, 22.589582177697995, 121.92602521038206, 48.396969581727035, 62.64428094850245 
162.42847881307316, 0.2646655513517624, 22.5895806281303, 121.22603161047671, 48.434746193115195, 62.64385586096297 
161.50576065483355, 0.34957754940265034, 22.58957835271712, 120.52587067044911, 48.475462327921896, 62.64339778635729 
160.58361666642793, 0.44053286361310584, 22.589575217617398, 119.82552870142001, 48.519112709663275, 62.642906805339585 
159.66208138078818, 0.5375040774474261, 22.589571080331293, 119.1249917814988, 48.565691681624855, 62.64238300468056 
158.7411881966257, 0.6404620462873908, 22.589565789921735, 118.42424573876637, 48.615193207564374, 62.641826477318325 
157.82096931583453, 0.7493759217792397, 22.589559187249257, 117.72327613411622, 48.66761087244974, 62.64123732241218 
156.9014556829529, 0.8642131773124925, 22.589551105219993, 117.02206824394318, 48.72293788322966, 62.640615645399144 
155.982676926756, 0.9849396345612779, 22.589541369046373, 116.32060704266786, 48.7811670696343, 62.63996155805307 
155.06466130404513, 1.1115194910166113, 22.58952979652022, 115.61887718508459, 48.84229088500334, 62.63927517854629 
154.14743564569008, 1.2439153484361334, 22.5895161982979, 114.91686298852083, 48.90630140713818, 62.63855663151351 
153.23102530497286, 1.3820882421363032, 22.589500378197155, 114.21454841479466, 48.97319033917562, 62.63780604811797 
152.3154541082731, 1.5259976710505276, 22.589482133505125, 113.51191705195713, 49.042949010479404, 62.63702356611957 
151.40074430812663, 1.6756016284759152, 22.589461255297355, 112.80895209580555, 49.11556837754641, 62.63620932994509 
150.48691653868093, 1.8308566334303045, 22.589437528767103, 112.10563633115294, 49.19103902492383, 62.6353634907598 
149.57398977356243, 1.9917177625409166, 22.589410733564712, 111.40195211283881, 49.26935116613372, 62.634486206540984 
148.66198128616327, 2.158138682385713, 22.58938064414657, 110.69788134646541, 49.35049464460076, 62.63357764215271 
147.75090661234705, 2.330071682208476, 22.589347030133084, 109.99340546884298, 49.434458934579595, 62.63263796942182 
146.84077951556594, 2.5074677069290408, 22.589309656675315, 109.28850542812741, 49.52123314207699, 62.63166736721507 
145.93161195437278, 2.690276390370651, 22.589268284829696, 108.58316166363187, 49.61080600576487, 62.63066602151696 
145.02341405230766, 2.878446088627027, 22.589222671940473, 107.87735408529448, 49.70316589787943, 62.62963412550844 
144.1161940701283, 3.0719239134929217, 22.589172572029174, 107.17106205278252, 49.7983008251015, 62.628571879646145 
143.20995838035049, 3.270655765882918, 22.589117736190726, 106.46426435421292, 49.89619842941356, 62.627479491741596 
142.30471144405615, 3.4745863691648813, 22.58905791299572, 105.75693918446845, 49.99684598892787, 62.626357177041 
141.4004557899235, 3.68365930233571, 22.58899284889813, 105.04906412308746, 50.10023041868083, 62.62520515830453 
140.49719199542616, 3.8978170329691713, 22.58892228864815, 104.34061611170426, 50.20633827138776, 62.62402366588562 
139.59491867014577, 4.117000949867062, 22.58884597570942, 103.63157143101698, 50.31515573815268, 62.622812937809506 
138.69363244113597, 4.341151395347378, 22.588763652680278, 102.92190567725721, 50.42666864912705, 62.62157321985136 
137.79332794027383, 4.570207697105046, 22.588675061718277, 102.21159373813639, 50.54086247411151, 62.620304765613255 
136.8939977935298, 4.804108199583089, 22.588579944967577, 101.5006097682416, 50.65772232309419, 62.61900783660018 
135.99563261208507, 5.042790294794671, 22.588478044988598, 100.78892716385243, 50.77723294671933, 62.61768270229467 
135.09822098522224, 5.286190452538514, 22.588369105189233, 100.07651853715018, 50.89937873667918, 62.61632964022994 
134.20174947491347, 5.534244249953096, 22.58825287025738, 99.36335568978798, 51.024143726022515, 62.61494893606118 
133.30620261202807, 5.786886400357276, 22.588129086593796, 98.64940958579089, 51.15151158937236, 62.61354088363506 
132.41156289408062, 6.04405078132788, 22.587997502745054, 97.93465032375168, 51.281465643045635, 62.61210578505685 
131.5178107844394, 6.305670461967068, 22.587857869835908, 97.21904710828845, 51.41398884506683, 62.61064395075543 
130.62492471291526, 6.5716777293154, 22.587709942000377, 96.50256822072726, 51.54906379506809, 62.60915569954544 
129.73288107764986, 6.842004113868619, 22.58755347681122, 95.78518098897257, 51.68667273406692, 62.6076413586868 
128.84165424822342, 7.116580414159507, 22.58738823570702, 95.06685175652576, 51.82679754411354, 62.60610126394133 
127.95121656990256, 7.395336720367965, 22.587213984416408, 94.34754585061091, 51.969419747798746, 62.60453575962573 
127.06153836894993, 7.6782024369259325, 22.587030493378943, 93.62722754936517, 52.1145205076129, 62.602945198661686 
126.17258795891821, 7.965106304085756, 22.586837538161877, 92.90586004804904, 52.26208062514725, 62.601329942621895 
125.28433164785392, 8.255976418423282, 22.58663489987251, 92.1834054242302, 52.41208054012676, 62.599690361772694 
124.3967337463371, 8.550740252249714, 22.58642236556538, 91.45982460189278, 52.56450032926518, 62.59802683511224 
123.5097565762871, 8.849324671908287, 22.586199728643855, 90.73507731442135, 52.71931970493103, 62.59633975040481 
122.62336048046504, 9.151655954934652, 22.58596678925564, 90.0091220664074, 52.87651801361388, 62.594629504210495 
121.7375038326091, 9.457659806061685, 22.585723354681512, 89.28191609422392, 53.03607423417936, 62.592896501910445 
120.8521430481396, 9.767261372052346, 22.585469239716943, 88.55341532531065, 53.19796697590097, 62.5911411577272 
119.96723259537626, 10.080385255345641, 22.58520426704597, 87.82357433611168, 53.3621744762564, 62.58936389474017 
119.082725007212, 10.396955526503692, 22.584928267606944, 87.09234630860293, 53.528674598475476, 62.58756514489593 
118.19857089319324, 10.716895735449214, 22.58464108094952, 86.35968298534637, 53.69744482882625, 62.58574534901322 
117.31471895195952, 11.040128921485257, 22.584342555582545, 85.62553462300393, 53.86846227362542, 62.58390495678234 
116.43111598400036, 11.36657762209083, 22.58403254931229, 84.88984994424172, 54.04170365595847, 62.58204442675921 
115.54770690469176, 11.696163880487605, 22.58371092957062, 84.15257608795336, 54.21714531209435, 62.580164226353375 
114.66443475757903, 12.028809251975314, 22.583377573732665, 83.41365855772703, 54.394763187578945, 62.578264831810024 
113.78124072787867, 12.364434809034345, 22.5830323694235, 82.67304116847916, 54.574532832990734, 62.576346728186245 
112.89806415617583, 12.702961145196737, 22.58267521481348, 81.93066599117397, 54.75642939934173, 62.57441040932056 
112.01484255230075, 13.044308377687248, 22.582306018901853, 81.18647329554594, 54.94042763310506, 62.572456377796684 
111.13151160937137, 13.388396148838924, 22.581924701788143, 80.44040149073798, 55.12650187085124, 62.570485144900125 
110.2480052179968, 13.735143626288071, 22.581531194931067, 79.69238706376646, 55.31462603347268, 62.56849723056872 
109.36425548064105, 14.084469501955711, 22.581125441394544, 78.94236451572009, 55.50477361997633, 62.566493163336105 
108.48019272615244, 14.436291989823872, 22.580707396080502, 78.1902662955963, 55.69691770082294, 62.56447348026857 
107.59574552447177, 14.790528822516233, 22.580277025948092, 77.43602273167718, 55.89103091079004, 62.56243872689483 
106.71084070153643, 15.14709724669458, 22.579834310219095, 76.67956196034127, 56.08708544133553, 62.56038945712861 
105.82540335440689, 15.505914017283265, 22.579379240569125, 75.92080985220713, 56.28505303243672, 62.55832623318455 
104.93935686664645, 15.86689539053597, 22.578911821304434, 75.15968993549879, 56.484904963879345, 62.556249625486515 
