# MEX_intpoint_lon [deg], MEX_intpoint_lat [deg], MEX_intpoint_angle [deg], TGO_intpoint_lon [deg], TGO_intpoint_lat [deg], TGO_intpoint_angle [deg] 
-104.28490543948105, 20.500883449500034, 22.504059871259997, -160.30250267045133, 59.153369181466545, 62.528695660571685 
-105.18779004631905, 20.123646073506777, 22.504667644042616, -161.10212216534484, 58.933323433641505, 62.53087993112361 
-106.08897288762391, 19.74746014226869, 22.50526447165635, -161.89817344743258, 58.71475138924989, 62.53305863427613 
-106.98854904375989, 19.37241628632995, 22.50585018539414, -162.69077000695552, 58.497688560194675, 62.53523111021121 
-107.88661216507415, 18.99860446461398, 22.506424629800325, -163.48002176650195, 58.282169828304845, 62.537396705498516 
-108.78325444632856, 18.62611398319694, 22.506987662690197, -164.26603520137675, 58.06822946371095, 62.539554773279754 
-109.67856660248755, 18.255033513269186, 22.507539155153594, -165.0489134557276, 57.85590114222186, 62.541704673445466 
-110.5726378457284, 17.885451108248752, 22.508078991542494, -165.82875645455002, 57.645217961749424, 62.5438457728046 
-111.46555586355049, 17.517454220012873, 22.50860706944272, -166.60566101169732, 57.436212457825235, 62.5459774452462 
-112.35740679786859, 17.151129714216374, 22.50912329962984, -167.3797209340199, 57.22891661825207, 62.54809907189403 
-113.24827522498443, 16.78656388466691, 22.509627606009367, -168.15102712175977, 57.0233618969302, 62.55021004125349 
-114.13824413633917, 16.423842466729788, 22.510119925541275, -168.919667665325, 56.819579226897076, 62.55230974935098 
-115.02739491995834, 16.063050649736287, 22.51060020814919, -169.68572793856782, 56.61759903261728, 62.55439759986607 
-115.91580734250833, 15.70427308837147, 22.51106841661414, -170.44929068868876, 56.41745124155751, 62.55647300425601 
-116.80355953189213, 15.347593913019086, 22.511524526453325, -171.21043612288653, 56.21916529508009, 62.558535381872886 
-117.69072796031944, 14.993096739042514, 22.51196852578377, -171.9692419918727, 56.02277015868696, 62.560584160073496 
-118.57738742779348, 14.640864674982769, 22.512400415171424, -172.72578367036613, 55.82829433164425, 62.56261877432181 
-119.46361104596564, 14.290980329655238, 22.512820207465627, -173.48013423468072, 55.635765856016555, 62.5646386682843 
-120.34947022231368, 13.943525818129384, 22.51322792761941, -174.23236453751664, 55.44521232513863, 62.56664329391794 
-121.23503464460933, 13.598582766575959, 22.513623612495767, -174.98254328006294, 55.25666089155058, 62.568632111551274 
-122.12037226564456, 13.256232315968637, 22.51400731066019, -175.73073708151546, 55.07013827442205, 62.570604589958286 
-123.00554928819585, 12.916555124627747, 22.514379082159838, -176.47701054611252, 54.88567076648914, 62.572560206425486 
-123.8906301502085, 12.57963136959566, 22.51473899828954, -177.22142632778613, 54.70328424052721, 62.57449844681201 
-124.77567751019258, 12.245540746834576, 22.515087141345106, -177.96404519252462, 54.52300415538137, 62.57641880560303 
-125.66075223282611, 11.91436247023893, 22.515423604364074, -178.70492607853936, 54.34485556157561, 62.57832078595668 
-126.54591337476711, 11.586175269456376, 22.515748490854502, -179.44412615432438, 54.16886310652076, 62.580203899744205 
-127.43121817068298, 11.261057386512421, 22.516061914511976, 179.8182991253041, 53.9950510393401, 62.58206766758389 
-128.31672201950965, 10.939086571235766, 22.51636399892532, 179.08229596510475, 53.823443215331366, 62.58391161886881 
-129.20247847095976, 10.62034007548268, 22.516654877271403, 178.34781217716497, 53.65406310008234, 62.58573529178821 
-130.08853921230283, 10.304894646160683, 22.516934691999392, 177.61479713043283, 53.486933773257036, 62.58753823334313 
-130.97495405544646, 9.992826517053132, 22.51720359450498, 176.88320170195271, 53.322077932068495, 62.58931999935605 
-131.86177092435156, 9.684211399448614, 22.517461744794925, 176.15297822973264, 53.1595178944537, 62.59108015447493 
-132.74903584282055, 9.379124471580273, 22.517709311142426, 175.42408046717316, 52.9992756019653, 62.59281827217179 
-133.63679292269921, 9.077640366882544, 22.517946469733744, 174.69646353899145, 52.841372622394424, 62.59453393473577 
-134.52508435254046, 8.779833161074553, 22.518173404306605, 173.9700838985763, 52.685830152138244, 62.59622673326107 
-135.41395038677905, 8.485776358081292, 22.518390305780738, 173.244899286711, 52.53266901832527, 62.597896267629984 
-136.30342933547277, 8.19554287480604, 22.51859737188126, 172.5208686916063, 52.38190968071116, 62.599542146491025 
-137.19355755466626, 7.9092050247694665, 22.518794806755146, 171.7979523101843, 52.23357223335687, 62.60116398723214 
-138.08436943743988, 7.626834500633101, 22.518982820581492, 171.0761115105597, 52.08767640610106, 62.60276141594998 
-138.9758974057066, 7.348502355626986, 22.519161629176033, 170.35530879566483, 51.94424156583781, 62.604334067414335 
-139.8681719028238, 7.074278983903978, 22.519331453590315, 169.63550776796737, 51.80328671761046, 62.605881585028946 
-140.76122138708914, 6.804234099845027, 22.519492519706365, 168.91667309523294, 51.66483050553197, 62.60740362078801 
-141.65507232619174, 6.538436716342761, 22.51964505782695, 168.19877047728457, 51.52889121354181, 62.608899835229266 
-142.54974919269145, 6.276955122092664, 22.519789302262435, 167.4817666137149, 51.39548676600911, 62.61036989738355 
-143.44527446060115, 6.019856857923883, 22.51992549091433, 166.76562917250757, 51.26463472819121, 62.61181348472084 
-144.34166860314755, 5.767208692204284, 22.52005386485654, 166.05032675952594, 51.13635230655689, 62.61323028309351 
-145.2389500917871, 5.519076595356706, 22.52017466791445, 165.33582888883052, 51.010656348982515, 62.61461998667642 
-146.13713539655419, 5.275525713526199, 22.520288146242688, 164.62210595378554, 50.88756334483008, 62.61598229790458 
-147.03623898781862, 5.036620341440336, 22.52039454790195, 163.90912919891892, 50.76708942491458, 62.61731692740809 
-147.93627333952935, 4.802423894507542, 22.520494122435622, 163.19687069250028, 50.64925036136913, 62.618623593944946 
-148.83724893402072, 4.5729988802006565, 22.520587120446468, 162.48530329980318, 50.53406156741488, 62.61990202433192 
-149.73917426845588, 4.348406868775795, 22.520673793174357, 161.77440065701938, 50.421538097043445, 62.62115195337335 
-150.64205586298198, 4.12870846337873, 22.520754392075144, 161.06413714579386, 50.311694644618655, 62.62237312378825 
-151.54589827066758, 3.9139632695937756, 22.520829168401622, 160.35448786835133, 50.20454554440445, 62.62356528613646 
-152.4507040892931, 3.7042298644923255, 22.520898372786824, 159.6454286231851, 50.10010477002583, 62.62472819874306 
-153.3564739750598, 3.499565765240627, 22.520962254830465, 158.93693588128136, 49.99838593386864, 62.62586162762195 
-154.2632066582813, 3.3000273973286016, 22.521021062688806, 158.22898676285268, 49.8994022864251, 62.62696534639872 
-155.17089896111796, 3.105670062483517, 22.521075042668826, 157.52155901455518, 49.80316671559038, 62.628039136232815 
-156.07954581740955, 2.9165479063344724, 22.521124438826817, 156.81463098716551, 49.709691745916345, 62.6290827857393 
-156.98914029465763, 2.732713885895584, 22.52116949257231, 156.10818161369446, 49.61898953782803, 62.6300960909105 
-157.89967361820493, 2.554219736937189, 22.521210442277646, 155.40219038791506, 49.531071886807936, 62.63107885503756 
-158.8111351976525, 2.3811159413164193, 22.521247522893717, 154.6966373432838, 49.44595022255378, 62.632030888632165 
-159.72351265555127, 2.2134516943394518, 22.521280965572526, 153.9915030322345, 49.36363560811424, 62.63295200934885 
-160.6367918583977, 2.05127487222931, 22.52131099729687, 153.28676850582514, 49.28413873900776, 62.63384204190761 
-161.55095694995651, 1.894631999774012, 22.521337840517795, 152.58241529371927, 49.20746994232917, 62.634700818017485 
-162.4659903869289, 1.7435682182305796, 22.52136171280019, 151.87842538448362, 49.133639175848366, 62.63552817630098 
-163.38187297697527, 1.5981272535611775, 22.52138282647708, 151.17478120618443, 49.0626560271054, 62.636323962219606 
-164.2985839190959, 1.458351385077929, 22.52140138831303, 150.47146560726623, 48.99452971250624, 62.637088028000775 
-165.21610084636532, 1.3242814145731714, 22.52141759917708, 149.76846183769706, 48.929269076423104, 62.63782023256613 
-166.13439987100776, 1.1959566360116762, 22.521431653725685, 149.0657535303643, 48.86688259030311, 62.63852044146146 
-167.05345563179478, 1.0734148058611095, 22.52144374009612, 148.36332468270712, 48.807378351789, 62.63918852678847 
-167.97324134373648, 0.9566921141362804, 22.521454039610603, 147.66115963857033, 48.75076408385533, 62.639824367138516 
-168.89372885003124, 0.8458231562318947, 22.521462726491745, 146.95924307026735, 48.69704713396348, 62.64042784752822 
-169.81488867623, 0.740840905617243, 22.521469967589486, 146.25755996083757, 48.64623447323867, 62.64099885933764 
-170.73669008656339, 0.6417766874650134, 22.521475922120096, 145.55609558648652, 48.59833269567193, 62.64153730025061 
-171.65910114237164, 0.5486601532843687, 22.52148074141734, 144.85483549919647, 48.55334801734992, 62.64204307419754 
-172.58208876257038, 0.46151925662678034, 22.52148456869641, 144.1537655094948, 48.5112862757153, 62.642516091301076 
-173.50561878607562, 0.38038022993059495, 22.52148753883071, 143.45287166937018, 48.472152928860076, 62.64295626782416 
-174.42965603610605, 0.3052675625678735, 22.52148977814188, 142.75214025532392, 48.435953054854444, 62.64336352612141 
-175.3541643862712, 0.23620398015420008, 22.521491404203427, 142.05155775154708, 48.40269135111322, 62.64373779459298 
-176.27910682834838, 0.17321042517921992, 22.52149252565803, 141.35111083321198, 48.37237213380207, 62.64407900764193 
-177.2044455416436, 0.11630603901217897, 22.52149324204893, 140.6507863498688, 48.34499933728522, 62.64438710563428 
-178.13014196382588, 0.06550814533338316, 22.521493643665508, 139.95057130893707, 48.32057651361667, 62.64466203486285 
-179.0561568631176, 0.020832235038692387, 22.521493811403445, 139.2504528592819, 48.29910683207628, 62.64490374751398 
-179.98245041171825, -0.017708047339827383, 22.521493816639357, 138.5504182748671, 48.28059307875229, 62.645112201637886 
179.09101773966574, -0.05010091565809716, 22.521493721120333, 137.8504549384743, 48.26503765617149, 62.64528736112235 
178.1642883863184, -0.07633645259429532, 22.52149357686841, 137.1505503254802, 48.25244258297832, 62.64542919566996 
177.23740269317477, -0.09640661846306504, 22.52149342610011, 136.45069198768303, 48.24280949366362, 62.645537680779 
176.31040211778537, -0.1103052583840126, 22.521493301161183, 135.75086753716877, 48.23613963834403, 62.64561279772779 
175.38332833272733, -0.11802810778362256, 22.52149322447663, 135.05106463020937, 48.23243388259273, 62.64565453356278 
174.45622314760814, -0.11957279621449449, 22.52149320851598, 134.35127095118415, 48.23169270732188, 62.64566288109025 
173.52912843080904, -0.11493884948079153, 22.521493255774132, 133.65147419651595, 48.2339162087172, 62.64563783887165 
172.60208603111695, -0.10412769006364996, 22.521493358767415, 132.9516620586131, 48.23910409822484, 62.645579411222776 
171.67513769939345, -0.0871426358452709, 22.521493500045192, 132.25182220981006, 48.24725570259076, 62.64548760821649 
170.74832501042985, -0.06398889713550764, 22.521493652216797, 131.55194228629685, 48.258369963952106, 62.64536244568912 
169.8216892851364, -0.034673572009562836, 22.52149377799389, 130.8520098720301, 48.27244543998078, 62.64520394525062 
168.89527151321178, 0.0007943600295129572, 22.521493830248076, 130.15201248261624, 48.289480304078424, 62.64501213429843 
167.96911227643832, 0.042404046045082945, 22.521493752083796, 129.45193754915906, 48.3094723456224, 62.64478704603468 
167.04325167274314, 0.09014276929465634, 22.52149347692632, 128.7517724020625, 48.332418970262026, 62.64452871948733 
166.11772924116545, 0.1439959604631904, 22.521492928624756, 128.05150425478013, 48.35831720026403, 62.644237199534615 
165.19258388786344, 0.20394721046945508, 22.521492021569998, 127.35112018750216, 48.387163674906425, 62.643912536933044 
164.2678538132914, 0.2699782848086095, 22.52149066082733, 126.6506071307715, 48.418954650919254, 62.643554788348816 
163.34357644067256, 0.3420691393898863, 22.521488742283594, 125.9499518490187, 48.45368600297126, 62.643164016392646 
162.4197883458871, 0.4201979378241779, 22.52148615280876, 125.24914092400726, 48.49135322420055, 62.64274028965774 
161.4965251888899, 0.5043410701126249, 22.521482770431522, 124.54816073817882, 48.53195142678787, 62.64228368276117 
160.57382164676525, 0.5944731726834234, 22.52147846452898, 123.8469974578888, 48.57547534257056, 62.641794276388296 
159.65171134851974, 0.6905671497209299, 22.521473096029748, 123.14563701652209, 48.62191932369515, 62.64127215733994 
158.730226811708, 0.7925941957276943, 22.52146651763064, 122.44406509747796, 48.67127734330655, 62.640717418583 
157.80939938097728, 0.9005238192574108, 22.521458574026305, 121.74226711701384, 48.72354299627151, 62.6401301593033 
156.88925916861064, 1.014323867753824, 22.52144910215179, 121.04022820693632, 48.77870949993385, 62.63951048496166 
155.96983499714034, 1.1339605534284856, 22.521437931437422, 120.33793319712787, 48.83676969489892, 62.63885850735213 
155.05115434409547, 1.2593984801078928, 22.521424884075927, 119.63536659789732, 48.89771604584444, 62.638174344662794 
154.13324328893864, 1.3906006709788945, 22.521409775301265, 118.9325125821416, 48.961540642354926, 62.63745812153901 
153.21612646224082, 1.527528597159424, 22.521392413678925, 118.22935496730575, 49.02823519977645, 62.6367099691486 
152.29982699713264, 1.6701422070205603, 22.521372601407148, 117.5258771971279, 49.09779106008859, 62.63593002524916 
151.3843664830653, 1.8183999561846929, 22.521350134628886, 116.8220623231552, 49.17019919279027, 62.63511843425733 
150.46976492190325, 1.9722588381238146, 22.521324803753846, 116.11789298601619, 49.24545019579567, 62.634275347319594 
149.556040686366, 2.1316744152816, 22.521296393790415, 115.41335139643483, 49.32353429633667, 62.6334009223847 
148.6432104808261, 2.2966008506424975, 22.52126468468686, 114.70841931596999, 49.404441351867945, 62.632495324277514 
147.73128930446447, 2.4669909396712186, 22.52122945168143, 114.00307803746463, 49.48816085097062, 62.63155872477401 
146.82029041677703, 2.6427961425461306, 22.52119046566093, 113.29730836518752, 49.57468191425009, 62.6305913026773 
145.9102253054174, 2.8239666166107376, 22.52114749352715, 112.59109059464951, 49.663993295224046, 62.629593243894604 
145.00110365635732, 3.0104512489678847, 22.521100298570854, 111.88440449207651, 49.75608338119559, 62.628564741514715 
144.09293332633598, 3.202197689142525, 22.521048640852687, 111.17722927351942, 49.850940194107245, 62.627505995886075 
143.18572031756688, 3.399152381739791, 22.52099227759055, 110.46954358358141, 49.948551391370515, 62.62641721469528 
142.27946875466222, 3.601260599026627, 22.520930963552978, 109.76132547374144, 50.04890426666614, 62.62529861304522 
141.3741808637316, 3.8084664733664964, 22.520864451457875, 109.05255238025241, 50.151985750709734, 62.62415041353359 
140.46985695360536, 4.020713029438723, 22.520792492376245, 108.34320110159126, 50.25778241197728, 62.622972846330974 
139.5664953991288, 4.2379422161752744, 22.520714836140208, 107.63324777543737, 50.36628045738481, 62.62176614925831 
138.66409262646965, 4.4600949383504025, 22.520631231754955, 106.92266785515459, 50.47746573291653, 62.62053056786362 
137.76264310037635, 4.687111087760046, 22.52054142781392, 106.2114360857511, 50.59132372419523, 62.619266355498176 
136.86213931332293, 4.918929573930383, 22.520445172916716, 105.4995264792909, 50.70783955698865, 62.617973773391 
135.96257177647135, 5.155488354297272, 22.520342216089304, 104.78691228972784, 50.826997997645535, 62.61665309072264 
135.0639290123813, 5.396724463800268, 22.520232307205728, 104.07356598713429, 50.94878345345436, 62.615304584696915 
134.16619754939475, 5.64257404383787, 22.52011519741104, 103.3594592312933, 51.07317997291815, 62.613928540611205 
133.26936191762042, 5.892972370532582, 22.51999063954464, 102.64456284462285, 51.20017124593773, 62.61252525192471 
132.37340464644262, 6.147853882257431, 22.51985838856368, 101.92884678439906, 51.32974060389664, 62.611095020324534 
131.47830626347832, 6.407152206377557, 22.519718201965805, 101.21228011424407, 51.46187101963924, 62.60963815578944 
130.5840452949044, 6.670800185163647, 22.519569840210806, 100.49483097484264, 51.59654510733478, 62.608154976650894 
129.6905982670792, 6.938729900836022, 22.51941306714053, 99.77646655385014, 51.733745122218664, 62.60664580965158 
128.79793970938027, 7.210872699701244, 22.519247650396554, 99.05715305495261, 51.873452960202805, 62.605110990000746 
127.90604215818314, 7.487159215345222, 22.519073361835055, 98.33685566603891, 52.01565015734577, 62.60355086142626 
127.0148761619053, 7.76751939084967, 22.51888997793827, 97.61553852644212, 52.160317889173996, 62.60196577622354 
126.12441028704167, 8.05188250000129, 22.518697280222163, 96.89316469320613, 52.3074369698445, 62.60035609530061 
125.23461112511957, 8.340177167465095, 22.518495055639544, 96.16969610633191, 52.45698785113889, 62.59872218821961 
124.34544330050277, 8.63233138789646, 22.518283096978287, 95.44509355295511, 52.60895062127898, 62.597064433234046 
123.45686947897693, 8.928272543968102, 22.518061203254007, 94.71931663040566, 52.763305003553135, 62.59538321732212 
122.56885037705091, 9.22792742329124, 22.51782918009676, 93.992323708097, 52.92003035474243, 62.593678936215404 
121.68134477191185, 9.53122223421182, 22.51758684013117, 93.2640718881917, 53.079105663335035, 62.5919519944232 
120.79430951197399, 9.838082620465567, 22.517334003349553, 92.53451696498642, 53.240509547517334, 62.590202805252005 
119.90769952796633, 10.148433674677198, 22.517070497477466, 91.80361338295883, 53.40422025292905, 62.58843179082005 
119.02146784450548, 10.462199950691664, 22.51679615833131, 91.07131419341464, 53.57021565016972, 62.58663938206685 
118.13556559210639, 10.779305474727146, 22.516510830167334, 90.33757100967247, 53.738473232043205, 62.58482601875728 
117.24994201958579, 11.099673755341458, 22.516214366021767, 89.60233396072066, 53.90897011052608, 62.58299214948047 
116.36454450681818, 11.423227792205683, 22.515906628041492, 88.86555164327721, 54.08168301344584, 62.581138231642875 
115.47931857780917, 11.749890083680286, 22.515587487804847, 88.12717107218323, 54.25658828085319, 62.579264731455574 
114.59420791405451, 12.079582633191317, 22.515256826632143, 87.38713762905498, 54.43366186107336, 62.57737212391608 
113.70915436815923, 12.41222695440535, 22.514914535885477, 86.6453950091194, 54.612879306419366, 62.575460892783354 
112.8240979776951, 12.747744075204308, 22.514560517257397, 85.9018851661531, 54.794215768550494, 62.573531530547406 
111.9389769792815, 13.08605454046206, 22.514194683048064, 85.15654825544345, 54.977645993457834, 62.571584538391974 
111.05372782287813, 13.427078413627143, 22.513816956430546, 84.40932257468634, 55.163144316058144, 62.56962042615119 
110.16828518628553, 13.770735277116726, 22.51342727170379, 83.66014450273289, 55.35068465437669, 62.56763971225932 
109.28258198985411, 14.116944231528972, 22.513025574533025, 82.90894843609432, 55.54024050329822, 62.565642923694064 
108.39654941140806, 14.465623893682285, 22.512611822177234, 82.15566672311053, 55.7317849278649, 62.56363059591299 
107.51011690139792, 14.816692393491154, 22.51218598370334, 81.40022959568597, 55.92529055609871, 62.561603272782996 
106.62321219830022, 15.170067369690166, 22.511748040186788, 80.64256509849206, 56.12072957132484, 62.559561506502945 
105.73576134429064, 15.525665964418764, 22.51129798489838, 79.88259901553373, 56.31807370397139, 62.55750585751901 
104.8476887012226, 15.883404816681082, 22.51083582347682, 79.12025479397343, 56.51729422281994, 62.55543689443324 
