# MEX_intpoint_lon [deg], MEX_intpoint_lat [deg], MEX_intpoint_angle [deg], TGO_intpoint_lon [deg], TGO_intpoint_lat [deg], TGO_intpoint_angle [deg] 
-104.69188415042812, 20.593124495876754, 22.751761119723547, -175.29351810085194, 58.93298227902093, 62.53352801544024 
-105.5870931282536, 20.20318330374013, 22.752399172889994, -176.08080931916587, 58.70635938123024, 62.53578750144608 
-106.48059305297326, 19.81436571765964, 22.753025409160493, -176.86463458834447, 58.48128423295267, 62.53804102998671 
-107.37248429172267, 19.42676365792485, 22.753639651924026, -177.64510755040513, 58.25779203738619, 62.54028791891809 
-108.26286561685679, 19.040468362501347, 22.754241738878047, -178.42233814976458, 58.0359173853018, 62.5425274929452 
-109.15183418502899, 18.655570408864776, 22.75483152204803, -179.19643276411512, 57.81569427325741, 62.54475908381174 
-110.03948551746271, 18.272159734878343, 22.755408867789647, -179.96749433026218, 57.597156120777015, 62.54698203048186 
-110.92591348127358, 17.890325658680645, 22.75597365677384, 179.26437753489571, 57.38033578654633, 62.54919567931386 
-111.8112102717114, 17.51015689755246, 22.756525783954636, 178.49908641806604, 57.16526558367258, 62.55139938422613 
-112.69546639520095, 17.131741585733863, 22.757065158519914, 177.73653899776548, 56.95197729405442, 62.5535925068546 
-113.5787706530707, 16.755167291164074, 22.757591703825256, 176.97664493685528, 56.740502181905285, 62.5557744167026 
-114.46121012586852, 16.38052103111897, 22.758105357310896, 176.21931677924087, 56.53087100647142, 62.557944491282434 
-115.34287015817226, 16.007889286722413, 22.758606070402024, 175.46446985057247, 56.323114033983856, 62.560102116249084 
-116.22383434381277, 15.637358016309186, 22.759093808392546, 174.71202216278706, 56.117261048881396, 62.56224668552594 
-117.10418451143495, 15.269012667619029, 22.759568550312544, 173.96189432233732, 55.91334136434018, 62.56437760142253 
-117.98400071033178, 14.902938188802434, 22.760030288779593, 173.21400944195713, 55.71138383214324, 62.566494274744564 
-118.8633611964937, 14.53921903822054, 22.760479029834148, 172.46829305581883, 55.51141685192231, 62.568596124895926 
-119.74234241882438, 14.177939193022363, 22.76091479275936, 171.72467303794124, 55.3134683798019, 62.57068257997302 
-120.62101900548097, 13.819182156484557, 22.761337609885437, 170.98307952371258, 55.11756593647498, 62.5727530768516 
-121.49946375030567, 13.463030964099524, 22.761747526378905, 170.2434448343971, 54.92373661473753, 62.574807061265574 
-122.37774759932054, 13.109568188399553, 22.762144600017123, 169.50570340449966, 54.73200708650817, 62.57684398787887 
-123.25593963726776, 12.758875942505533, 22.762528900948258, 168.7697917118646, 54.54240360935799, 62.578863320349434 
-124.13410707418086, 12.411035882390445, 22.7629005114371, 168.0356482103938, 54.354952032574296, 62.58086453138604 
-125.01231523198229, 12.066129207848869, 22.76325952559713, 167.30321326526862, 54.1696778027808, 62.58284710279816 
-125.890627531107, 11.724236662165334, 22.763606049109168, 166.57242909056882, 53.986605969136065, 62.58481052553838 
-126.76910547715903, 11.385438530475772, 22.763940198926907, 165.84323968918298, 53.805761188130816, 62.586754299738175 
-127.64780864761417, 11.049814636817361, 22.76426210296986, 165.11559079491, 53.627167728003656, 62.58867793473665 
-128.52679467858732, 10.717444339864183, 22.764571899804118, 164.38942981665605, 53.45084947279413, 62.590580949102886 
-129.40611925168915, 10.388406527347197, 22.764869738311265, 163.66470578463336, 53.27682992605115, 62.59246287065152 
-130.2858360810022, 10.062779609158836, 22.765155777345935, 162.94136929847258, 53.105132214213846, 62.59432323645202 
-131.16599690021218, 9.740641509144169, 22.765430185382556, 162.21937247716343, 52.93577908968135, 62.59616159283194 
-132.04665144993453, 9.422069655582456, 22.765693140151622, 161.49866891074151, 52.768792933587335, 62.59797749537385 
-132.92784746528264, 9.10714097036455, 22.765944828266065, 160.7792136136433, 52.60419575829421, 62.599770508906616 
-133.80963066372772, 8.795931856873713, 22.766185444838214, 160.06096297965357, 52.44200920962173, 62.60154020749102 
-134.69204473330498, 8.488518186579338, 22.766415193087774, 159.343874738374, 52.282254568823454, 62.60328617439968 
-135.5751313212266, 8.18497528435509, 22.766634283941524, 158.62790791314285, 52.12495275432483, 62.60500800209174 
-136.45893002296347, 7.885377912535183, 22.766842935625025, 157.91302278034024, 51.970124323235325, 62.606705292182646 
-137.34347837186422, 7.589800253724834, 22.767041373247075, 157.19918083001576, 51.81778947264709, 62.608377655408624 
-138.22881182938127, 7.298315892383168, 22.767229828377392, 156.48634472777692, 51.66796804073188, 62.6100247115868 
-139.1149637759796, 7.010997795199082, 22.76740853861801, 155.77447827788086, 51.520679507647536, 62.61164608957052 
-140.00196550280384, 6.727918290283555, 22.767577747169153, 155.06354638747356, 51.375942996265096, 62.61324142720054 
-140.88984620418523, 6.44914904520375, 22.76773770238986, 154.35351503192302, 51.23377727272694, 62.61481037125197 
-141.77863297106975, 6.174761043887508, 22.76788865735428, 153.6443512211953, 51.09420074684613, 62.61635257737754 
-142.66835078545276, 5.904824562429065, 22.768030869403947, 152.93602296722486, 50.957231472356824, 62.61786771004697 
-143.55902251590624, 5.6394091438297425, 22.76816459969673, 152.22849925223184, 50.82288714702502, 62.619355442483005 
-144.45066891428627, 5.378583571710121, 22.768290112753103, 151.52174999794204, 50.69118511262885, 62.62081545659419 
-145.34330861370972, 5.122415843032978, 22.7684076760003, 150.81574603566617, 50.562142354817226, 62.62224744290476 
-146.23695812788947, 4.870973139879165, 22.768517559314827, 150.11045907719776, 50.435775502855286, 62.62365110048154 
-147.13163185191777, 4.624321800321354, 22.76862003456416, 149.40586168649017, 50.31210082926466, 62.625026136858416 
-148.02734206458717, 4.382527288443644, 22.768715375148044, 148.701927252075, 50.19113424936689, 62.62637226795843 
-148.92409893233824, 4.145654163557612, 22.768803855540114, 147.99862996018612, 50.072891320737234, 62.6276892180139 
-149.8219105149208, 3.91376604866858, 22.768885750830346, 147.29594476855496, 49.95738724257651, 62.62897671948443 
-150.72078277285632, 3.6869255982482954, 22.768961336269044, 146.59384738084353, 49.84463685500807, 62.63023451297344 
-151.62071957678424, 3.465194465373454, 22.769030886812864, 145.89231422168444, 49.73465463830677, 62.63146234714327 
-152.52172271877492, 3.248633268291705, 22.769094676673568, 145.19132241229684, 49.62745471206672, 62.63265997862896 
-153.4237919256878, 3.037301556479881, 22.769152978869982, 144.49084974665027, 49.52305083431433, 62.63382717195121 
-154.32692487464942, 2.8312577762615256, 22.76920606478388, 143.79087466814806, 49.4214564005727, 62.63496369942853 
-155.23111721072382, 2.6305592360531302, 22.769254203720333, 143.09137624680406, 49.32268444288366, 62.63606934108869 
-156.1363625668418, 2.43526207131116, 22.769297662472987, 142.39233415688778, 49.22674762879325, 62.63714388458022 
-157.0426525860505, 2.2454212092538515, 22.769336704895075, 141.6937286550127, 49.13365826030613, 62.638187125083384 
-157.94997694614182, 2.0610903334338824, 22.76937159147651, 140.99554055864604, 49.04342827281467, 62.63919886522175 
-158.85832338670858, 1.8823218482399817, 22.769402578927743, 140.29775122501613, 48.95606923400787, 62.64017891497361 
-159.7676777386751, 1.7091668434070766, 22.76942991977089, 139.6003425303976, 48.871592342765084, 62.64112709158424 
-160.67802395633925, 1.5416750586161925, 22.76945386193869, 138.90329684975276, 48.79000842803975, 62.64204321947884 
-161.5893441519571, 1.379894848266508, 22.769474648381767, 138.20659703671097, 48.711327947737615, 62.64292713017635 
-162.50161863289415, 1.2238731465030785, 22.76949251668486, 137.51022640386626, 48.635560987594275, 62.64377866220459 
-163.4148259413587, 1.0736554325843923, 22.76950769869229, 136.81416870337577, 48.562717260056104, 62.64459766101629 
-164.32894289672566, 0.9292856966746019, 22.769520420143422, 136.11840810784207, 48.4928061031692, 62.645383978907404 
-165.24394464044877, 0.7908064061455309, 22.76953090031842, 135.42292919146257, 48.42583647948011, 62.64613747493619 
-166.15980468355386, 0.6582584724733879, 22.76953935169482, 134.72771691143046, 48.361816974952355, 62.64685801484501 
-167.07649495669332, 0.531681218814963, 22.769545979615415, 134.03275658957213, 48.30075579790244, 62.64754547098362 
-167.9939858627357, 0.41111234834743876, 22.76955098196785, 133.33803389420638, 48.24266077795909, 62.64819972223504 
-168.91224633185377, 0.29658791345499846, 22.76955454887634, 132.64353482221168, 48.18753936504885, 62.64882065394348 
-169.83124387906525, 0.18814228584419324, 22.769556862405942, 131.94924568128826, 48.13539862841148, 62.6494081578451 
-170.75094466417286, 0.08580812766858417, 22.769558096279823, 131.2551530724014, 48.08624525564825, 62.64996213200135 
-171.67131355403797, -0.010383636258856799, 22.769558415609787, 130.56124387239478, 48.04008555180589, 62.650482480734944 
-172.59231418711641, -0.10040384508898739, 22.76955797664049, 129.8675052167606, 47.99692543849922, 62.650969114569236 
-173.51390904017413, -0.18422512732158672, 22.76955692650771, 129.1739244825561, 47.95677045307477, 62.65142195017018 
-174.4360594970915, -0.261821924881007, 22.769555403010937, 128.48048927145481, 47.9196257478181, 62.65184091029193 
-175.3587259196579, -0.3331705158143315, 22.769553534400607, 127.78718739292164, 47.88549608920689, 62.65222592372543 
-176.28186772024884, -0.3982490355472883, 22.769551439180226, 127.09400684750202, 47.854385857212186, 62.652576925250855 
-177.2054434362702, -0.4570374966369097, 22.769549225923743, 126.40093581021422, 47.82629904464942, 62.65289385559301 
-178.12941080624665, -0.5095178069636984, 22.769546993108314, 125.70796261403595, 47.80123925658135, 62.65317666138101 
-179.0537268474255, -0.5556737863104708, 22.769544828962783, 125.01507573347482, 47.77920970977434, 62.65342529511109 
-179.97834793475846, -0.5954911812791885, 22.769542811331856, 124.322263768214, 47.760213232209594, 62.653639715113655 
179.09677011888078, -0.6289576785019906, 22.76954100755654, 123.6295154268237, 47.7442522626506, 62.65381988552395 
178.17167198138975, -0.6560629161073525, 22.769539474370603, 122.93681951052972, 47.731328850267964, 62.6539657762566 
177.2464027191952, -0.6767984934072532, 22.769538257813434, 122.24416489703013, 47.72144465432267, 62.65407736298439 
176.32100771423177, -0.6911579787766278, 22.769537393159343, 121.55154052435188, 47.71460094390857, 62.6541546271208 
175.39553258030116, -0.6991369157014644, 22.769536904863447, 120.85893537473814, 47.71079859775485, 62.65419755580669 
174.47002307897554, -0.7007328269775198, 22.76953680652408, 120.16633845855917, 47.710038104088895, 62.65420614190112 
173.5445250352094, -0.6959452170470181, 22.769537100861946, 119.47373879823684, 47.71231956055999, 62.654180383976126 
172.61908425282624, -0.6847755724663402, 22.769537779715957, 118.78112541217595, 47.71764267422408, 62.65412028631579 
171.69374643004724, -0.6672273605033077, 22.769538824055754, 118.0884872986934, 47.72600676158956, 62.65402585891923 
170.768557075228, -0.6433060258682496, 22.769540204010877, 117.39581341993663, 47.737410748723974, 62.653897117507896 
169.84356142296934, -0.6130189855886563, 22.76954187891668, 116.70309268578396, 47.75185317142147, 62.65373408353674 
168.91880435076615, -0.5763756220428432, 22.76954379737671, 116.01031393771751, 47.76933217543034, 62.65353678420963 
167.9943302963557, -0.5333872741733183, 22.769545897341665, 115.31746593266105, 47.78984551674028, 62.653305252498676 
167.07018317592411, -0.48406722690620685, 22.76954810620473, 114.62453732677355, 47.81339056192846, 62.65303952716768 
166.14640630332528, -0.42843069880809165, 22.769550340913174, 113.93151665919038, 47.83996428856347, 62.6527396527994 
165.22304231046306, -0.36649482801687533, 22.76955250809604, 113.23839233570295, 47.8695632856662, 62.652405679826785 
164.30013306898095, -0.29827865648816554, 22.769554504207843, 112.54515261236801, 47.90218375422623, 62.652037664568006 
163.3777196133997, -0.22380311260343302, 22.769556215687977, 111.85178557903726, 47.93782150777242, 62.65163566926529 
162.45584206583467, -0.14309099219068297, 22.769557519135674, 111.158279142798, 47.976471972996116, 62.65119976212731 
161.5345395624205, -0.05616693801281566, 22.769558281500334, 110.46462101131522, 48.01813019042532, 62.65073001737532 
160.61385018156142, 0.0369425822173237, 22.76955836028678, 109.7707986760649, 48.06279081514769, 62.650226515292665 
159.69381087411884, 0.13620929923212546, 22.769557603775464, 109.07679939544856, 48.11044811758072, 62.64968934227763 
158.7744573956393, 0.24160316694830036, 22.76955585125707, 108.38261017777846, 48.16109598428647, 62.64911859089982 
157.85582424071825, 0.3530923884801449, 22.76955293328126, 107.68821776412233, 48.21472791882877, 62.64851435995927 
156.93794457958538, 0.4706434433543487, 22.76954867191941, 106.99360861099657, 48.271337042670346, 62.64787675454909 
156.02085019698933, 0.5942211158511834, 22.769542881040714, 106.2987688728962, 48.33091609610693, 62.647205886120574 
155.10457143345002, 0.7237885243944361, 22.76953536660149, 105.60368438464896, 48.39345743923591, 62.64650187255121 
154.1891371289377, 0.8593071519105797, 22.76952592694721, 104.90834064358172, 48.458953052956126, 62.64576483821557 
153.27457456902934, 1.0007368770758984, 22.769514353126922, 104.21272279148545, 48.52739453999597, 62.64499491405812 
152.3609094335824, 1.1480360063689632, 22.769500429219537, 103.51681559636515, 48.59877312596607, 62.644192237668825 
151.44816574795814, 1.3011613068447094, 22.769483932671683, 102.82060343396107, 48.67307966043365, 62.64335695336064 
150.53636583681742, 1.4600680395457148, 22.769464634646575, 102.12407026902572, 48.75030461801422, 62.642489212249146 
149.62553028050178, 1.6247099934656977, 22.769442300383485, 101.4271996363418, 48.8304380994773, 62.64158917233357 
148.7156778740054, 1.7950395199802727, 22.769416689567322, 100.72997462146452, 48.91346983286207, 62.64065699858006 
147.80682558853442, 1.9710075676598566, 22.769387556707866, 100.03237784117204, 48.99938917459855, 62.63969286300587 
146.8989885356413, 2.1525637173802594, 22.76935465152806, 99.33439142360608, 49.088185110630356, 62.638696944764845 
145.99217993391483, 2.3396562176471307, 22.769317719360995, 98.63599698808476, 49.17984625753432, 62.63766943023436 
145.08641107819838, 2.5322320200511106, 22.769276501554906, 97.93717562456831, 49.27436086363232, 62.6366105131024 
144.18169131130162, 2.730236814772042, 22.769230735885767, 97.23790787275802, 49.37171681009056, 62.63552039445604 
143.27802799816422, 2.933615066051657, 22.769180156976887, 96.53817370080755, 49.471901612001304, 62.63439928286973 
142.37542650242355, 3.142310047556022, 22.76912449672491, 95.8379524836246, 49.57490241944176, 62.633247394494234 
141.47389016533268, 3.3562638775504907, 22.769063484731756, 95.13722298074092, 49.680706018504786, 62.63206495314539 
140.57342028696883, 3.5754175538122173, 22.768996848741864, 94.43596331372598, 49.789298832295884, 62.63085219039245 
139.67401610966766, 3.7997109882070634, 22.768924315084167, 93.73415094312064, 49.90066692189078, 62.629609345646706 
138.7756748036144, 4.029083040860348, 22.76884560911826, 93.03176264486387, 50.01479598724737, 62.62833666624859 
137.87839145451787, 4.263471553852908, 22.76876045568403, 92.32877448618628, 50.1316713680662, 62.62703440755458 
136.98215905329113, 4.502813384376711, 22.768668579554497, 91.62516180094184, 50.251278044592915, 62.625702833022565 
136.0869684876571, 4.74704443728691, 22.7685697058907, 90.92089916434817, 50.37360063835611, 62.62434221429628 
135.1928085355978, 4.996099696989511, 22.768463560698727, 90.21596036710483, 50.498623412833844, 62.62295283128789 
134.29966586056045, 5.249913258607149, 22.768349871287615, 89.51031838885702, 50.62633027404166, 62.6215349722591 
133.40752500833457, 5.5084183583677255, 22.768228366728042, 88.80394537097139, 50.75670477103499, 62.620088933899936 
132.51636840551046, 5.771547403163956, 22.768098778310904, 88.09681258858824, 50.88973009631824, 62.61861502140556 
131.62617635943164, 6.039231999234299, 22.76796084000525, 87.38889042191387, 51.025389086152956, 62.617113548550684 
130.73692705954969, 6.311402979919053, 22.76781428891502, 86.68014832671403, 51.16366422075681, 62.61558483776102 
129.84859658009358, 6.5879904324478415, 22.767658865733974, 85.97055480396898, 51.30453762438519, 62.61402922018213 
128.96115888396318, 6.868923723717972, 22.76749431519807, 85.26007736864742, 51.447991065286864, 62.612447035745014 
128.0745858277593, 7.154131525025577, 22.76732038653499, 84.54868251755612, 51.59400595552451, 62.61083863322842 
127.18884716786303, 7.443541835714526, 22.76713683390991, 83.8363356962191, 51.74256335065102, 62.609204370317535 
126.30391056747848, 7.737082005710931, 22.766943416867072, 83.12300126473843, 51.89364394923206, 62.6075446136589 
125.41974160455615, 8.034678756913191, 22.766739900766673, 82.40864246258708, 52.04722809220469, 62.60585973891151 
124.53630378051459, 8.336258203411075, 22.76652605721628, 81.6932213722809, 52.203295762061906, 62.60415013079335 
123.65355852968273, 8.641745870508961, 22.7663016644963, 80.97669888187622, 52.36182658185235, 62.60241618312388 
122.7714652293862, 8.951066712531704, 22.76606650797908, 80.25903464623497, 52.52279981398398, 62.6006582988617 
121.88998121060567, 9.26414512939332, 22.765820380540827, 79.54018704699904, 52.68619435882014, 62.59887689013742 
121.00906176913767, 9.580904981911683, 22.76556308296599, 78.8201131512108, 52.851988753056034, 62.59707237828151 
120.12866017719276, 9.901269605854141, 22.76529442434348, 78.09876866851582, 53.02016116786307, 62.595245193847 
119.24872769536944, 10.225161824701576, 22.765014222454287, 77.37610790687951, 53.19068940678808, 62.593395776626735 
118.36921358494705, 10.55250396112037, 22.764722304149842, 76.65208372674765, 53.36355090339361, 62.59152457566487 
117.49006512044399, 10.883217847133688, 22.764418505720815, 75.92664749357684, 53.53872271862544, 62.589632049262946 
116.61122760239445, 11.217224832985773, 22.764102673255575, 75.1997490286583, 53.71618153789235, 62.58771866497967 
115.73264437029951, 11.554445794694347, 22.763774662988205, 74.47133655815476, 53.8959036678428, 62.58578489962472 
114.8542568157146, 11.894801140288529, 22.763434341635246, 73.74135666026692, 54.07786503282241, 62.58383123924641 
113.97600439544125, 12.238210814730904, 22.76308158672092, 73.00975421044275, 54.26204117099538, 62.58185817911259 
113.09782464479447, 12.584594303524547, 22.762716286890374, 72.27647232453826, 54.44840723011246, 62.57986622368527 
112.21965319092543, 12.933870635006862, 22.76233834221047, 71.54145229983621, 54.63693796290675, 62.57785588658835 
111.34142376618229, 13.285958381334087, 22.76194766445772, 70.80463355382314, 54.82760772209845, 62.575827690568445 
110.46306822150031, 13.640775658161573, 22.761544177393016, 70.06595356062334, 55.02039045498807, 62.573782167448805 
109.58451653981712, 13.998240123026182, 22.76112781702269, 69.32534778498274, 55.21525969761733, 62.5717198580761 
108.7056968495156, 14.358268972439127, 22.760698531845716, 68.58274961369156, 55.412188568475194, 62.56964131225992 
107.82653543790458, 14.720778937698167, 22.760256283086427, 67.83809028433137, 55.611149761726274, 62.5675470887048 
106.94695676475253, 15.085686279430028, 22.75980104491276, 67.09129881122571, 55.8121155399368, 62.56543775493502 
106.06688347589808, 15.452906780874779, 22.759332804639403, 66.34230190847146, 56.015057726273, 62.563313887211756 
105.18623641696713, 15.822355739925568, 22.758851562915794, 65.59102390992072, 56.21994769614469, 62.561176070442514 
