# MEX_intpoint_lon [deg], MEX_intpoint_lat [deg], MEX_intpoint_angle [deg], TGO_intpoint_lon [deg], TGO_intpoint_lat [deg], TGO_intpoint_angle [deg] 
-104.31311068504044, 20.50738539540937, 22.520999230734795, -161.32614247596234, 59.15012437618848, 62.528828178086506 
-105.21547675240213, 20.1292700957263, 22.52160907113077, -162.12557474514122, 58.9299777110461, 62.531013599082016 
-106.11614033048342, 19.752211148477343, 22.522207907541922, -162.92144025519244, 58.71130588415086, 62.533193446850525 
-107.01519686540024, 19.37629927885638, 22.52279557072045, -163.71385250322408, 58.49414440301368, 62.53536706123222 
-107.91274036208056, 19.001624539561387, 22.523371904741254, -164.5029214165117, 58.2785281453142, 62.53753378846194 
-108.80886335899189, 18.62827632977737, 22.523936767021553, -165.28875347303563, 58.06449137727554, 62.53969298135341 
-109.70365690421536, 18.256343413337525, 22.52449002832431, -166.07145181776295, 57.85206777103953, 62.5418439994764 
-110.59721053273186, 17.885913936026867, 22.525031572745696, -166.85111637479682, 57.641290421089245, 62.54398620932598 
-111.48961224479638, 17.517075441994603, 22.52556129768656, -167.6278439555203, 57.43219185976329, 62.546118984484735 
-112.38094848528482, 17.149914889244098, 22.526079113807935, -168.40172836285913, 57.22480407190418, 62.54824170577704 
-113.27130412390765, 16.784518664170562, 22.52658494497081, -169.17286049179128, 57.01915850868116, 62.550353761416176 
-114.16076243619233, 16.420972595119455, 22.527078728160195, -169.9413284262273, 56.81528610062619, 62.552454547143846 
-115.04940508514565, 16.059361964939594, 22.527560413393658, -170.7072175323866, 56.61321726991973, 62.55454346636211 
-115.93731210351545, 15.699771522506909, 22.528029963614447, -171.4706105487925, 56.41298194196135, 62.556619930258165 
-116.82456187657856, 15.342285493196899, 22.528487354569435, -172.23158767300612, 56.2146095562587, 62.55868335792134 
-117.71123112539055, 14.986987588284519, 22.528932574672023, -172.99022664521877, 56.018129076666526, 62.56073317645305 
-118.59739489043946, 14.633961013252726, 22.529365624850247, -173.74660282881814, 55.82356900100638, 62.56276882106928 
-119.48312651565409, 14.283288474991572, 22.529786518380295, -174.50078928804243, 55.630957370095636, 62.56478973519583 
-120.3684976327236, 13.935052187871925, 22.53019528070573, -175.25285686283286, 55.44032177621388, 62.56679537055638 
-121.25357814569338, 13.58933387867853, 22.530591949242595, -176.0028742409927, 55.25168937103269, 62.56878518725343 
-122.13843621580754, 13.246214790389518, 22.53097657317076, -176.7509080277577, 55.06508687303433, 62.570758653842255 
-123.02313824657624, 12.90577568478975, 22.531349213211787, -177.49702281287964, 54.88054057444302, 62.572715247397845 
-123.90774886905162, 12.568096843908075, 22.531709941393576, -178.24128123532202, 54.69807634769213, 62.57465445357501 
-124.79233092730298, 12.233258070268699, 22.5320588408022, -178.98374404566388, 54.51771965144891, 62.57657576666176 
-125.67694546408745, 11.901338685949542, 22.532396005321267, -179.72447016630383, 54.339495536217925, 62.57847868962608 
-126.56165170671834, 11.572417530441056, 22.532721539359034, 179.53648325044543, 54.16342864954315, 62.580362734156175 
-127.44650705313956, 11.246572957300872, 22.53303555756385, 178.79906076628544, 53.98954324082791, 62.58222742069412 
-128.33156705821926, 10.92388282960132, 22.533338184528176, 178.06320860280013, 53.81786316579096, 62.584072278463665 
-129.21688542028195, 10.604424514168056, 22.53362955448164, 177.3288745891823, 53.648411890576355, 62.585896845491554 
-130.10251396790284, 10.2882748746102, 22.533909810973487, 176.59600811174084, 53.48121249553381, 62.587700668622915 
-130.98850264699365, 9.975510263143596, 22.534179106544986, 175.86456006511378, 53.31628767868571, 62.589483303530976 
-131.87489950821387, 9.666206511210975, 22.534437602392018, 175.13448280511443, 53.153659758896275, 62.5912443147209 
-132.76175069474567, 9.360438918904327, 22.534685468018512, 174.40573010314148, 52.99335067875755, 62.59298327552831 
-133.64910043047533, 9.058282243196931, 22.534922880881094, 173.67825710208547, 52.83538200720654, 62.59469976811214 
-134.53699100862883, 8.759810684994202, 22.53515002602539, 172.95202027366753, 52.67977494188705, 62.596393383442674 
-135.4254627809116, 8.465097875014726, 22.535367095714548, 172.22697737714807, 52.52655031126946, 62.59806372128419 
-136.3145541472085, 8.174216858514734, 22.535574289050416, 171.5030874193459, 52.37572857654078, 62.599710390173094 
-137.2043015459012, 7.887240078871689, 22.535771811587903, 170.78031061591025, 52.227329833277416, 62.60133300739108 
-138.0947394448651, 7.604239360044632, 22.535959874943032, 170.05860835379085, 52.0813738129121, 62.602931198934115 
-138.98590033321076, 7.3252858879311145, 22.536138696395213, 169.33794315485255, 51.93787988400603, 62.60450459947687 
-139.87781471383616, 7.050450190643419, 22.536308498484217, 168.61827864058435, 51.796867053337486, 62.60605285233327 
-140.7705110968607, 6.779802117728294, 22.536469508602483, 167.89957949785318, 51.6583539668168, 62.60757560941303 
-141.664015994012, 6.513410818357714, 22.536621958583115, 167.181811445656, 51.522358910238005, 62.60907253117437 
-142.55835391404003, 6.251344718520073, 22.53676608428443, 166.46494120282512, 51.38889980987679, 62.61054328657361 
-143.45354735923334, 5.993671497243975, 22.536902125171174, 165.74893645664335, 51.25799423294401, 62.61198755301095 
-144.3496168231144, 5.740458061889285, 22.537030323893372, 165.03376583232716, 51.12965938790369, 62.61340501627368 
-145.24658078939103, 5.491770522542691, 22.537150925863084, 164.31939886333896, 51.003912124664424, 62.614795370475974 
-146.14445573224208, 5.24767416555764, 22.537264178829798, 163.60580596248926, 50.88076893465225, 62.61615831799657 
-147.04325611801525, 5.008233426280954, 22.537370332454874, 162.89295839379227, 50.76024595077343, 62.61749356941331 
-147.9429944084144, 4.773511861011312, 22.537469637885803, 162.18082824504066, 50.642358947274616, 62.61880084343622 
-148.8436810652543, 4.543572118236995, 22.537562347330518, 161.469388401064, 50.52712333950823, 62.620079866837614 
-149.74532455685753, 4.318475909203292, 22.537648713632723, 160.75861251764053, 50.4145541836102, 62.62133037438125 
-150.64793136616916, 4.098283977861952, 22.53772898984847, 160.04847499602914, 50.30466617609724, 62.62255210874915 
-151.55150600066077, 3.8830560702581094, 22.537803428824713, 159.33895095809387, 50.19747365339035, 62.62374482046746 
-152.45605100409503, 3.672850903411995, 22.53787228278032, 158.63001622199042, 50.09299059127125, 62.624908267830655 
-153.36156697021758, 3.4677261337554928, 22.537935802890132, 157.9216472783887, 49.99123060427817, 62.626042216825276 
-154.26805255844036, 3.2677383251856016, 22.53799423887262, 157.21382126720462, 49.89220694504701, 62.62714644105241 
-155.17550451157825, 3.0729429167990894, 22.538047838581704, 156.5065159548158, 49.79593250360384, 62.6282207216497 
-156.08391767569435, 2.883394190374631, 22.538096847603118, 155.79970971173717, 49.702419806614785, 62.629264847213015 
-156.9932850221068, 2.699145237670779, 22.538141508856175, 155.09338149073358, 49.611681016598496, 62.6302786137179 
-157.90359767160425, 2.520247927609518, 22.53818206220105, 154.38751080534666, 49.52372793110673, 62.63126182444104 
-158.81484492091266, 2.3467528734172256, 22.538218744052465, 153.68207770881534, 49.438571981878276, 62.632214289881745 
-159.72701427144872, 2.178709399795788, 22.53825178700008, 152.97706277336854, 49.35622423397123, 62.63313582768424 
-160.64009146039206, 2.0161655101983635, 22.538281419436114, 152.27244706987173, 49.27669538487827, 62.634026262559956 
-161.5540604940985, 1.8591678542848828, 22.538307865190767, 151.56821214780734, 49.19999576362984, 62.63488542621112 
-162.4689036838737, 1.707761695633555, 22.538331343175845, 150.86434001557186, 49.12613532988952, 62.63571315725495 
-163.384601684116, 1.561990879785066, 22.538352067037092, 150.16081312107173, 49.055123673046005, 62.6365093011491 
-164.30113353283335, 1.4218978026965463, 22.53837024481572, 149.45761433260145, 48.98697001130571, 62.63727371011845 
-165.2184766945288, 1.2875233796826968, 22.53838607861953, 148.75472691998854, 48.921683190790205, 62.63800624308324 
-166.13660710544343, 1.1589070149211445, 22.53839976430405, 148.05213453598876, 48.85927168464191, 62.63870676558889 
-167.0554992211372, 1.0360865715987888, 22.538411491164215, 147.34982119791815, 48.79974359214216, 62.63937514973766 
-167.97512606637926, 0.9190983427753849, 22.538421441636867, 146.64777126950682, 48.74310663784468, 62.64001127412219 
-168.89545928731275, 0.8079770230395139, 22.538429791014575, 145.9459694429611, 48.68936817072814, 62.64061502376115 
-169.81646920584984, 0.7027556810310754, 22.538436707171094, 145.24440072122073, 48.63853516337069, 62.64118629003716 
-170.73812487624525, 0.6034657329028654, 22.538442350298812, 144.5430504003989, 48.5906142111497, 62.64172497063709 
-171.6603941437881, 0.5101369167921079, 22.538446872658625, 143.84190405239198, 48.54561153146939, 62.64223096949483 
-172.5832437055438, 0.42279726837089326, 22.53845041834247, 143.14094750764815, 48.503532963019076, 62.642704196736595 
-173.5066391730708, 0.3414730975419484, 22.538453123048885, 142.44016683808263, 48.46438396506474, 62.643144568629296 
-174.4305451370275, 0.266188966343922, 22.53845511387189, 141.73954834012915, 48.42816961677589, 62.643552007531476 
-175.3549252335794, 0.19696766812731456, 22.538456509103437, 141.0390785179163, 48.394894616590406, 62.643926441847235 
-176.27974221250702, 0.13383020805917903, 22.53845741804977, 140.33874406655906, 48.36456328161917, 62.644267805983574 
-177.2049580069107, 0.07679578501150008, 22.538457940861818, 139.6385318555547, 48.33717954709235, 62.64457604031035 
-178.13053380439922, 0.025881774884390796, 22.538458168379965, 138.93842891227393, 48.312746965849264, 62.64485109112397 
-179.05643011964548, -0.018896284588233184, 22.538458181993345, 138.23842240553694, 48.29126870787329, 62.64509291061413 
-179.98260686818517, -0.057524707507171126, 22.538458053513846, 137.5384996292658, 48.27274755987335, 62.645301456834154 
179.09097655867052, -0.0899916719111529, 22.53845784506499, 136.83864798620345, 48.257185924913145, 62.645476693674546 
178.16436121794112, -0.1162872302799163, 22.538457608985876, 136.13885497169042, 48.24458582208938, 62.64561859084024 
177.2375885382402, -0.13640331840651834, 22.5384573877503, 135.43910815749075, 48.234948886259886, 62.645727123831506 
176.31070024233676, -0.15033376261323902, 22.538457213901072, 134.7393951756579, 48.2282763678225, 62.64580227392821 
175.3837382691594, -0.15807428528982667, 22.53845710999981, 134.03970370243263, 48.224569132545334, 62.64584402817782 
174.4567446953894, -0.1596225087380565, 22.53845708859203, 133.34002144216376, 48.223827661448894, 62.64585237938718 
173.529761656792, -0.15497795731122432, 22.538457152187803, 132.6403361112439, 48.22605205074059, 62.64582732611798 
172.60283126943455, -0.14414205784236309, 22.53845729325787, 131.94063542205114, 48.23124201180152, 62.645768872685586 
171.67599555094267, -0.12711813835991842, 22.5384574942453, 131.2409070668891, 48.2393968712259, 62.645677029162 
170.7492963419439, -0.10391142509463762, 22.53845772759254, 130.541138701916, 48.25051557091279, 62.64555181138228 
169.82277522784753, -0.07452903778640596, 22.538457955784047, 129.8413179310552, 48.264596668209904, 62.645393240954675 
168.89647346110945, -0.038979983304898144, 22.53845813140422, 129.14143228987797, 48.281638336109125, 62.64520134527439 
167.9704318841265, 0.0027248523974962705, 22.538458197210666, 128.4414692294507, 48.30163836349313, 62.64497615754103 
167.04469085290378, 0.05057271397688185, 22.538458086222743, 127.74141610013722, 48.324594155432294, 62.644717716779695 
166.11929016163464, 0.10454898800510343, 22.538457721825118, 127.04126013534773, 48.350502733531115, 62.64442606786528 
165.1942689683282, 0.16463721586023322, 22.53845701788636, 126.34098843522567, 48.37936073632297, 62.64410126155091 
164.2696657216169, 0.23081910816321455, 22.538455878892297, 125.6405879502631, 48.41116441971215, 62.643743354499 
163.34551808886872, 0.30307456071910055, 22.538454200094048, 124.9400454648355, 48.445909657461556, 62.64335240931639 
162.4218628857265, 0.3813816719174232, 22.53845186767043, 124.23934758064648, 48.48359194172498, 62.642928494592354 
161.49873600718794, 0.46571676154233993, 22.538448758904625, 123.53848070007267, 48.524206383621745, 62.64247168494003 
160.5761723603352, 0.5560543909393297, 22.53844474237481, 122.83743100939905, 48.567747713852306, 62.64198206104072 
159.6542057988161, 0.6523673844820739, 22.538439678158507, 122.13618446193418, 48.61421028335259, 62.64145970969161 
158.73286905917138, 0.7546268522797895, 22.538433418050435, 121.43472676099482, 48.66358806398515, 62.64090472385593 
157.81219369909547, 0.862802214062232, 22.53842580579347, 120.73304334274931, 48.71587464926448, 62.640317202716346 
156.8922100377105, 0.9768612241772453, 22.53841667732247, 120.03111935890823, 48.77106325511446, 62.63969725173086 
155.97294709792567, 1.0967699976329075, 22.538405861020724, 119.32893965925075, 48.829146720655, 62.639044982691104 
155.05443255094588, 1.2224930371144813, 22.538393177988464, 118.62648877397483, 48.890117509015276, 62.638360513783546 
154.13669266298604, 1.353993260904365, 22.538378442323303, 117.92375089585843, 48.95396770817055, 62.63764396965259 
153.21975224423832, 1.4912320316316432, 22.538361461412148, 117.22070986221935, 49.0206890317996, 62.63689548146594 
152.30363460013263, 1.634169185776582, 22.538342036234113, 116.5173491366596, 49.090272820159306, 62.63611518698214 
151.3883614849219, 1.7827630638543646, 22.538319961674205, 115.81365179058109, 49.162710040973295, 62.635303230619705 
150.4739530576158, 1.936970541201475, 22.538295026847234, 115.10960048445752, 49.2379912903308, 62.63445976352833 
149.56042784027863, 2.0967470592877824, 22.538267015431515, 114.40517744884778, 49.31610679359209, 62.63358494366135 
148.64780267869924, 2.2620466574771445, 22.538235706012046, 113.70036446513515, 49.39704640629679, 62.632678935849604 
147.73609270543372, 2.4328220051591676, 22.538200872432533, 112.9951428459758, 49.48079961507063, 62.631741911876745 
146.8253113052138, 2.6090244341752475, 22.538162284155977, 112.28949341543988, 49.56735553852678, 62.63077405055533 
145.9154700827066, 2.7906039714624398, 22.53811970663318, 111.58339648882705, 49.65670292815714, 62.62977553780388 
145.0065788326053, 2.9775093718393397, 22.53807290167878, 110.87683185213882, 49.74883016920921, 62.628746566724594 
144.0986455120232, 3.1696881508592645, 22.538021627854377, 110.16977874118749, 49.84372528154358, 62.62768733768158 
143.19167621515757, 3.3670866176570375, 22.537965640857966, 109.4622158203225, 49.941375920467294, 62.626598058379294 
142.28567515018398, 3.5696499077170607, 22.537904693919604, 108.75412116075276, 50.04176937753802, 62.62547894394114 
141.38064461833665, 3.777322015491935, 22.537838538202344, 108.04547221844382, 50.14489258133351, 62.62433021698797 
140.476584995124, 3.990045826802454, 22.53776692320824, 107.33624581156623, 50.2507320981812, 62.62315210771635 
139.5734947136266, 4.207763150951681, 22.53768959718864, 106.62641809747262, 50.35927413284201, 62.62194485397606 
138.6713702498167, 4.4304147524879145, 22.53760630755845, 105.91596454917786, 50.47050452914271, 62.62070870134729 
137.77020610983857, 4.657940382553124, 22.53751680131363, 105.20485993131706, 50.584408770550525, 62.6194439032166 
136.86999481918298, 4.890278809755979, 22.537420825451488, 104.49307827555458, 50.700971980684, 62.618150720851894 
135.97072691368646, 5.12736785051075, 22.537318127393156, 103.78059285541585, 50.82017892375351, 62.61682942347611 
135.07239093228492, 5.3691443987855605, 22.537208455407796, 103.06737616051313, 50.94201400492454, 62.615480288339256 
134.17497341144713, 5.615544455206292, 22.537091559037737, 102.35339987013447, 51.06646127059705, 62.614103600788916 
133.27845888121337, 5.866503155464532, 22.536967189524347, 101.63863482616459, 51.19350440859363, 62.61269965433845 
132.38282986276243, 6.121954797980863, 22.5368351002337, 100.92305100530415, 51.323126748249, 62.611268750733444 
131.48806686742967, 6.3818328707769885, 22.53669504708174, 100.20661749055334, 51.455311260393174, 62.60981120001553 
130.59414839709817, 6.646070077513203, 22.536546788958294, 99.48930244192368, 51.59004055722038, 62.60832732058356 
129.70105094588507, 6.914598362649836, 22.536390088149343, 98.77107306634058, 51.72729689203531, 62.60681743925242 
128.80874900304548, 7.1873489356943585, 22.536224710757, 98.05189558669767, 51.86706215886862, 62.60528189130824 
127.91721505701662, 7.464252294498065, 22.53605042711678, 97.33173521002227, 52.00931789195225, 62.603721020560954 
127.02641960052699, 7.745238247568917, 22.535867012211327, 96.61055609470964, 52.15404526504583, 62.6021351793931 
126.13633113669474, 8.030235935369902, 22.535674246080372, 95.88832131678163, 52.301225090604596, 62.60052472880517 
125.24691618604366, 8.319173850574229, 22.535471914226132, 95.16499283512414, 52.45083781877888, 62.59889003845714 
124.35813929436476, 8.611979857251752, 22.535259808013777, 94.44053145565509, 52.60286353623505, 62.597231486706036 
123.46996304135551, 8.908581208962902, 22.535037725066328, 93.71489679437342, 52.75728196478735, 62.595549460639184 
122.5823480499704, 9.208904565739157, 22.534805469653485, 92.98804723923661, 52.91407245982948, 62.59384435610314 
121.69525299641994, 9.51287600993101, 22.53456285307395, 92.25993991081364, 53.073214008554665, 62.592116577728234 
120.80863462075762, 9.820421060907082, 22.534309694030647, 91.53053062165588, 53.23468522795232, 62.59036653894799 
119.92244773799919, 10.131464688589663, 22.534045818998358, 90.79977383432869, 53.39846436256875, 62.588594662013946 
119.03664524972007, 10.445931325814593, 22.533771062583266, 90.06762261804171, 53.56452928201948, 62.586801378005156 
118.15117815608275, 10.763744879505118, 22.53348526787406, 89.33402860381544, 53.732857478239296, 62.58498712683258 
117.26599556824907, 11.084828740651346, 22.53318828678391, 88.59894193811803, 53.90342606245654, 62.583152357237886 
116.38104472113586, 11.409105793089173, 22.53287998038304, 87.8623112349035, 54.076211761876905, 62.58129752678665 
115.49627098647913, 11.736498421073868, 22.532560219221367, 87.12408352598133, 54.25119091606176, 62.579423101856015 
114.6116178861739, 12.06692851564587, 22.53222888364079, 86.3842042096427, 54.42833947298504, 62.57752955761605 
113.72702710586424, 12.40031747978755, 22.531885864076717, 85.64261699746788, 54.60763298475239, 62.57561737800551 
112.84243850876105, 12.736586232371936, 22.531531061348364, 84.89926385923447, 54.789046602965506, 62.57368705570087 
111.95779014967225, 13.075655210905392, 22.531164386937558, 84.1540849658453, 54.97255507371333, 62.57173909207961 
111.07301828923369, 13.417444373068415, 22.53078576325547, 83.40701863018995, 55.15813273217184, 62.56977399717653 
110.18805740833632, 13.7618731970599, 22.53039512389716, 82.65800124585223, 55.345753496792504, 62.56779228963383 
109.3028402227498, 14.108860680751736, 22.529992413883292, 81.90696722357231, 55.53539086305893, 62.56579449664432 
108.41729769794914, 14.458325339662307, 22.52957758988901, 81.15384892536915, 55.72701789679053, 62.56378115388797 
107.53135906415761, 14.810185203758627, 22.52915062045926, 80.39857659622618, 55.92060722697039, 62.561752805461296 
106.64495183162413, 15.164357813098512, 22.528711486210693, 79.64107829323935, 56.116131038074215, 62.55971000380016 
105.75800180616176, 15.520760212325346, 22.528260180019476, 78.88127981212486, 56.31356106187535, 62.557653309595125 
104.87043310497863, 15.879308944029821, 22.52779670719499, 78.11910461097928, 56.51286856870055, 62.55558329169983 
