# MEX_intpoint_lon [deg], MEX_intpoint_lat [deg], MEX_intpoint_angle [deg], TGO_intpoint_lon [deg], TGO_intpoint_lat [deg], TGO_intpoint_angle [deg] 
-103.90721372109928, 20.412498582491146, 22.280739229977577, -147.3914812816303, 59.022698855720996, 62.52984450128101 
-104.81684498150383, 20.046962436573445, 22.281319794390697, -148.18386214017767, 58.79875303455162, 62.53207315577714 
-105.72478709345953, 19.682413454521377, 22.28189017783292, -148.97273334885725, 58.576324685735266, 62.53429601408657 
-106.63113026409185, 19.318940928648114, 22.28245021872752, -149.75820856074125, 58.35544914823464, 62.536512403213756 
-107.53596341612347, 18.95663349309198, 22.282999767822375, -150.54039778156837, 58.136161140856764, 62.538721656821444 
-108.43937415871659, 18.595579139836325, 22.28353868820956, -151.31940749642246, 57.91849478056051, 62.54092311541797 
-109.34144875977799, 18.23586523404207, 22.284066855330003, -152.09534079169683, 57.702483599742955, 62.54311612653735 
-110.24227211960238, 17.8775785286554, 22.28458415696335, -152.8682974725009, 57.48816056255327, 62.54530004491092 
-111.14192774573878, 17.52080517825487, 22.285090493202965, -153.63837417566577, 57.27555808028104, 62.547474232631785 
-112.04049772897213, 17.165630752104946, 22.285585776416305, -154.40566447850264, 57.06470802586336, 62.54963805931109 
-112.93806272032018, 16.812140246384452, 22.286069931190585, -155.17025900346752, 56.85564174755285, 62.55179090222658 
-113.83470190895397, 16.460418095561103, 22.28654289426398, -155.93224551888187, 56.64839008178691, 62.55393214646345 
-114.73049300095687, 16.11054818288458, 22.287004614442473, -156.6917090358561, 56.442983365296435, 62.55606118504732 
-115.62551219884558, 15.762613849972658, 22.287455052502363, -157.44873190156056, 56.23945144649023, 62.55817741906949 
-116.5198341817824, 15.416697905466929, 22.28789418107883, -158.20339388898404, 56.03782369614997, 62.56028025780458 
-117.41353208641678, 15.07288263273564, 22.288321984540502, -158.9557722833171, 55.83812901746846, 62.562369118820335 
-118.30667748829904, 14.731249796603741, 22.28873845885034, -159.70594196509313, 55.64039585546262, 62.56444342808004 
-119.199340383818, 14.391880649090817, 22.28914361141306, -160.45397549021703, 55.44465220579119, 62.566502620037134 
-120.09158917261877, 14.05485593414011, 22.289537460909326, -161.19994316700598, 55.250925623005344, 62.56854613772264 
-120.9834906404651, 13.720255891322559, 22.289920037116783, -161.94391313036542, 55.05924322825953, 62.570573432824986 
-121.87510994251532, 13.388160258501891, 22.2902913807185, -162.68595141321583, 54.86963171650826, 62.57258396576257 
-122.76651058698857, 13.058648273447941, 22.29065154309886, -163.4261220152859, 54.68211736321347, 62.57457720574915 
-123.65775441920216, 12.731798674387127, 22.291000586127215, -164.16448696938042, 54.496726030586004, 62.57655263085202 
-124.54890160596835, 12.407689699480322, 22.29133858192968, -164.90110640522957, 54.31348317338347, 62.578509728043464 
-125.44001062034324, 12.086399085220023, 22.29166561264944, -165.63603861102146, 54.13241384428603, 62.58044799324494 
-126.33113822672597, 11.768004063740362, 22.291981770195672, -166.36934009271616, 53.95354269887042, 62.58236693136462 
-127.22233946631259, 11.452581359034614, 22.292287155981686, -167.1010656312367, 53.77689400020168, 62.58426605632857 
-128.1136676429129, 11.140207182077186, 22.2925818806525, -167.83126833762702, 53.6024916230614, 62.58614489110516 
-129.00517430914405, 10.830957224847914, 22.29286606380223, -168.55999970626587, 53.43035905783011, 62.58800296772301 
-129.89690925301954, 10.524906653258864, 22.293139833681757, -169.28730966622035, 53.260519414040985, 62.589839827283136 
-130.78892048495646, 10.2221300989849, 22.29340332689698, -170.0132466308201, 53.092995423621225, 62.5916550199646 
-131.68125422522843, 9.922701650201693, 22.293656688098096, -170.7378575455306, 52.927809443836644, 62.593448105024656 
-132.573954891896, 9.626694841235922, 22.293900069660353, -171.46118793419993, 52.764983459954514, 62.595218650792994 
-133.46706508924981, 9.334182641134966, 22.294133631356654, -172.18328194375113, 52.60453908763907, 62.59696623466028 
-134.36062559680633, 9.04523744116475, 22.294357540022496, -172.90418238738897, 52.446497575093424, 62.59869044306165 
-135.2546753588988, 8.759931041246599, 22.294571969213642, -173.62393078638763, 52.29087980496117, 62.60039087145486 
-136.1492514749105, 8.478334635345872, 22.29477709885711, -174.34256741052263, 52.13770629600023, 62.60206712429335 
-137.0443891901989, 8.200518795827287, 22.29497311489568, -175.06013131720795, 51.9869972045415, 62.60371881499454 
-137.9401218877642, 7.92655345679378, 22.295160208926713, -175.7766603893967, 51.83877232574372, 62.60534556590364 
-138.83648108071705, 7.656507896427882, 22.29533857783557, -176.49219137230207, 51.69305109465595, 62.60694700825284 
-139.73349640560284, 7.390450718357101, 22.2955084234241, -177.20675990899122, 51.549852587098755, 62.60852278211647 
-140.63119561664305, 7.128449832066372, 22.29566995203483, -177.92040057490468, 51.409195520374254, 62.61007253636194 
-141.5296045809547, 6.870572432383611, 22.29582337417122, -178.63314691135017, 51.27109825381536, 62.611595928597026 
-142.42874727481146, 6.6168849780661425, 22.29596890411455, -179.3450314580181, 51.13557878918392, 62.61309262511353 
-143.32864578101123, 6.367453169518335, 22.296106759537967, 179.9439142154355, 51.00265477092699, 62.61456230082743 
-144.2293202874156, 6.122341925672971, 22.296237161118125, 179.23365947869544, 50.87234348630057, 62.616004639216165 
-145.13078908672722, 5.881615360071457, 22.29636033214499, 178.52417461094123, 50.744661865369316, 62.61741933225247 
-146.03306857757246, 5.645336756179958, 22.296476498130357, 177.81543077180902, 50.619626480890794, 62.61880608033597 
-146.93617326695517, 5.413568541981125, 22.2965858864155, 177.1073999731224, 50.497253548092395, 62.62016459222196 
-147.84011577414825, 5.18637226388343, 22.29668872577856, 176.4000550513565, 50.377558924348925, 62.621494584948 
-148.74490683608914, 4.963808559992223, 22.296785246042077, 175.69336964079938, 50.260558108768116, 62.622795783758306 
-149.65055531434257, 4.745937132789101, 22.296875677681452, 174.9873181473777, 50.14626624169203, 62.6240679220264 
-150.55706820369514, 4.53281672126832, 22.296960251434438, 174.28187572311396, 50.0346981041209, 62.625310741176044 
-151.46445064244188, 4.3245050725811405, 22.29703919791255, 173.57701824118527, 49.92586811706659, 62.626523990600866 
-152.37270592442496, 4.121058913241159, 22.29711274721474, 172.87272227155285, 49.81979034084238, 62.62770742758254 
-153.28183551288066, 3.922533919945763, 22.297181128543837, 172.16896505713515, 49.71647847429527, 62.62886081720823 
-154.19183905614824, 3.728984690070656, 22.2972445698263, 171.46572449049702, 49.6159458539873, 62.6299839322871 
-155.10271440529186, 3.5404647118963792, 22.297303297335826, 170.7629790910288, 49.51820545333175, 62.63107655326632 
-156.01445763368167, 3.357026334627549, 22.297357535321183, 170.0607079825905, 49.42326988169007, 62.63213846814667 
-156.9270630585771, 3.1787207382669784, 22.297407505638898, 169.35889087159782, 49.33115138343522, 62.6331694723982 
-157.84052326475103, 3.0055979034085234, 22.297453427391186, 168.65750802552648, 49.24186183698673, 62.63416936887556 
-158.75482913018834, 2.8377065810137765, 22.297495516569732, 167.95654025181324, 49.15541275382295, 62.63513796773413 
-159.66996985388724, 2.675094262238837, 22.297533985705538, 167.255968877133, 49.071815277475245, 62.636075086346075 
-160.58593298578793, 2.5178071483786075, 22.297569043525627, 166.55577572703126, 48.99108018250932, 62.63698054921755 
-161.50270445884462, 2.3658901209967214, 22.297600894616796, 165.85594310589354, 48.91321787349825, 62.63785418790647 
-162.42026862325392, 2.219386712310015, 22.297629739097015, 165.1564537772325, 48.83823838399162, 62.638695840941445 
-163.33860828284543, 2.0783390758967273, 22.297655772294824, 164.4572909442758, 48.76615137548554, 62.63950535374194 
-164.25770473363266, 1.9427879577980964, 22.297679184437182, 163.75843823083702, 48.69696613639712, 62.640282578539875 
-165.1775378045182, 1.8127726680828873, 22.297700160346224, 163.05987966245434, 48.63069158104811, 62.64102737430285 
-166.09808590013841, 1.6883310529442745, 22.29771887914525, 162.36159964778037, 48.56733624866105, 62.64173960665908 
-167.01932604582674, 1.5694994673980354, 22.297735513974335, 161.66358296020874, 48.50690830237186, 62.64241914782431 
-167.94123393466853, 1.456312748650404, 22.297750231716073, 160.96581471972306, 48.44941552826237, 62.64306587653089 
-168.86378397661096, 1.3488041902030798, 22.297763192731637, 160.2682803749541, 48.39486533441624, 62.64367967795892 
-169.78694934958764, 1.2470055167616425, 22.297774550607624, 159.5709656854321, 48.34326475000121, 62.64426044367015 
-170.7107020526074, 1.1509468600124315, 22.29778445191395, 158.8738567040215, 48.29462042438116, 62.644808071544084 
-171.6350129607521, 1.060656735331095, 22.297793035973225, 158.1769397595254, 48.24893862626046, 62.64532246571693 
-172.55985188201979, 0.9761620194844665, 22.29780043464173, 157.48020143944825, 48.20622524286368, 62.64580353652346 
-173.48518761594315, 0.8974879293850683, 22.297806772102508, 156.78362857290497, 48.16648577915293, 62.646251200441604 
-174.41098801390729, 0.8246580019553469, 22.297812164670656, 156.0872082136656, 48.129725357085526, 62.6466653800403 
-175.3372200410829, 0.7576940751562076, 22.29781672061118, 155.39092762332461, 48.09594871491405, 62.64704600393055 
-176.26384983988606, 0.6966162702316028, 22.297820539969642, 154.69477425458464, 48.065160206531026, 62.64739300671949 
-177.19084279486893, 0.6414429752179, 22.29782371441578, 153.99873573464427, 48.03736380086006, 62.64770632896819 
-178.1181635989409, 0.5921908297636883, 22.297826327100367, 153.30279984868022, 48.01256308129521, 62.64798591715265 
-179.04577632081305, 0.548874711302233, 22.29782845252548, 152.60695452341466, 47.99076124519047, 62.64823172362851 
-179.9736444735559, 0.5115077226151326, 22.29783015642824, 151.91118781075738, 47.9719611034004, 62.6484437065993 
179.0982689158466, 0.4801011808222481, 22.29783149567849, 151.215487871515, 47.95616507987365, 62.64862183008848 
178.17000123606533, 0.4546646078288324, 22.297832518190088, 150.51984295915705, 47.943375211300115, 62.648766063915026 
177.24159022024097, 0.4352057222569771, 22.29783326284641, 149.82424140363113, 47.93359314681319, 62.64887638367308 
176.31307387417138, 0.4217304328842198, 22.297833759439747, 149.1286715952177, 47.92682014774744, 62.64895277071532 
175.38449040400116, 0.4142428336080428, 22.297834028625008, 148.4331219684164, 47.923057087452825, 62.648995212140164 
174.45587814354388, 0.4127451999506005, 22.297834081887547, 147.7375809858555, 47.92230445116562, 62.649003700782906 
173.5272754813704, 0.41723798711365123, 22.297833921525356, 147.04203712221567, 47.92456233593668, 62.64897823521088 
172.5987207877963, 0.4277198295892644, 22.297833540645414, 146.34647884816033, 47.92983045061704, 62.64891881972239 
171.67025234190316, 0.4441875423274174, 22.29783292317446, 145.65089461426362, 47.938108115901, 62.648825464349706 
170.74190825872708, 0.4666361234571432, 22.297832043883982, 144.95527283492825, 47.94939426442662, 62.64869818486598 
169.81372641674804, 0.4950587585534259, 22.297830868429465, 144.25960187228407, 47.96368744093313, 62.648537002795884 
168.88574438581222, 0.5294468264377461, 22.29782935340386, 143.5638700200602, 47.98098580247509, 62.6483419454306 
167.957999355617, 0.5697899064956162, 22.297827446405094, 142.86806548742064, 48.00128711869254, 62.648113045846095 
167.03052806488716, 0.6160757874904407, 22.29782508611776, 142.17217638275622, 48.02458877213638, 62.64785034292563 
166.10336673136658, 0.668290477848617, 22.297822202408575, 141.47619069742316, 48.0508877586482, 62.64755388138585 
165.17655098274793, 0.726418217386862, 22.297818716435756, 140.78009628942013, 48.08018068779329, 62.647223711806745 
164.25011578865698, 0.7904414904487614, 22.297814540771977, 140.08388086699398, 48.11246378334582, 62.64685989066516 
163.3240953938066, 0.8603410404136952, 22.297809579540875, 139.3875319721657, 48.147732883824574, 62.64646248037189 
162.3985232524276, 0.9360958855377686, 22.29780372856679, 138.69103696416667, 48.185983443077966, 62.64603154931237 
161.47343196408127, 1.0176833360826802, 22.2977968755377, 137.99438300277552, 48.22721053091625, 62.645567171890725 
160.54885321095145, 1.1050790126855032, 22.297788900180976, 137.29755703154615, 48.271408833789536, 62.64506942857711 
159.62481769670813, 1.1982568659189212, 22.29777967445185, 136.60054576091588, 48.31857265550908, 62.644538405958535 
158.7013550870295, 1.2971891969888487, 22.297769062734247, 135.90333565118365, 48.36869591801019, 62.64397419679238 
157.7784939518618, 1.401846679513529, 22.297756922053793, 135.2059128953476, 48.42177216215389, 62.64337690006334 
156.85626170949058, 1.5121983823258824, 22.297743102302682, 134.50826340178975, 48.47779454856534, 62.64274662104298 
155.93468457249003, 1.6282117932385887, 22.297727446476063, 133.8103727767974, 48.53675585850589, 62.64208347135225 
155.01378749560968, 1.7498528437094791, 22.297709790919743, 133.11222630690807, 48.59864849477637, 62.641387569026485 
154.09359412565124, 1.8770859343430415, 22.297689965588717, 132.41380894106592, 48.663464482648315, 62.64065903858288 
153.17412675338176, 2.0098739611623353, 22.29766779431638, 131.71510527257652, 48.73119547082024, 62.63989801109048 
152.25540626752027, 2.1481783425844676, 22.29764309509387, 131.01609952084638, 48.801832732395454, 62.639104624242066 
151.33745211083107, 2.2919590470316527, 22.29761568035929, 130.31677551289295, 48.875367165878146, 62.63827902242847 
150.4202822383463, 2.441174621109155, 22.297585357296423, 129.6171166646109, 48.95178929618399, 62.63742135681422 
149.50391307773683, 2.5957822182809145, 22.29755192814245, 128.91710596177882, 49.03108927566159, 62.63653178541539 
148.5883594918408, 2.7557376279733723, 22.29751519050441, 128.21672594079064, 49.11325688512066, 62.635610473178694 
147.67363474335463, 2.9209953050377897, 22.297474937683834, 127.51595866909545, 49.198281534863135, 62.634657592061885 
146.75975046168386, 3.0915083995016777, 22.297430959009205, 126.81478572532788, 49.286152265712445, 62.63367332111543 
145.8467166119445, 3.2672287865403162, 22.297383040175855, 126.11318817911142, 49.37685775003712, 62.63265784656521 
144.93454146610085, 3.4481070965996206, 22.297330963592668, 125.41114657051564, 49.47038629276348, 62.63161136189566 
144.0232315762187, 3.6340927456028203, 22.297274508735356, 124.70864088914794, 49.56672583237311, 62.63053406793389 
143.11279174980783, 3.8251339651738645, 22.29721345250568, 124.00565055285877, 49.66586394187983, 62.629426172933925 
142.20322502722297, 4.021177832812036, 22.297147569596188, 123.3021543860396, 49.767787829781135, 62.62828789266128 
141.2945326610865, 4.222170301953126, 22.297076632859998, 122.59813059749092, 49.8724843409788, 62.62711945047722 
140.38671409769267, 4.428056231854269, 22.29700041368516, 121.89355675783703, 49.979939957663, 62.62592107742312 
139.47976696034831, 4.638779417240851, 22.296918682373033, 121.18840977646327, 50.09014080015429, 62.62469301230416 
138.57368703460142, 4.854282617655793, 22.29683120852028, 120.48266587795044, 50.20307262769756, 62.623435501772455 
137.66846825530502, 5.074507586453201, 22.296737761403783, 119.77630057797957, 50.31872083920183, 62.622148800409136 
136.7641026954622, 5.299395099380202, 22.296638110368296, 119.06928865867985, 50.43707047391934, 62.62083317080559 
135.86058055679274, 5.528884982693159, 22.296532025215928, 118.36160414339017, 50.558106212057865, 62.619488883643136 
134.9578901619624, 5.762916140755939, 22.296419276597337, 117.65322027080464, 50.68181237531886, 62.61811621777137 
134.05601794841158, 6.001426583070693, 22.29629963640373, 116.94410946847017, 50.80817292735502, 62.61671546028458 
133.1549484637204, 6.244353450693308, 22.296172878159524, 116.23424332560364, 50.93717147413954, 62.615286906596154 
132.25466436244363, 6.491633041988311, 22.296038777414818, 115.52359256519362, 51.068791264239955, 62.613830860511285 
131.35514640435147, 6.743200837679953, 22.295897112137435, 114.81212701535165, 51.203015188988495, 62.6123476342964 
130.45637345400738, 6.998991525158918, 22.295747663103796, 114.09981557987481, 51.33982578254111, 62.61083754874676 
129.55832248161818, 7.258939022006003, 22.29559021428831, 113.3866262079812, 51.4792052218169, 62.609300933250815 
128.66096856508884, 7.522976498696874, 22.29542455325049, 112.67252586317676, 51.621135326309144, 62.607738125851505 
127.7642848932161, 7.791036400453905, 22.29525047151968, 111.9574804912119, 51.76559755775932, 62.60614947330441 
126.86824276995641, 8.063050468213866, 22.29506776497645, 111.24145498708239, 51.912573019684544, 62.60453533113228 
125.9728116197031, 8.338949758682299, 22.294876234230472, 110.52441316102893, 52.06204245674919, 62.60289606367601 
125.07795899351147, 8.618664663447591, 22.29467568499425, 109.80631770348681, 52.21398625397058, 62.60123204414154 
124.18365057620979, 8.902124927130487, 22.294465928452205, 109.08713014893495, 52.368384435748474, 62.59954365464273 
123.28985019433854, 9.189259664546388, 22.294246781624643, 108.36681083859219, 52.52521666470777, 62.597831286239895 
122.39651982486056, 9.4799973768606, 22.29401806772614, 107.64531888190523, 52.684462240343194, 62.59609533897376 
121.50361960458888, 9.774265966718248, 22.293779616517824, 106.92261211677186, 52.84610009745455, 62.59433622189488 
120.61110784028054, 10.07199275233335, 22.293531264653165, 106.19864706843872, 53.0101088043606, 62.59255435308789 
119.71894101934896, 10.373104480522832, 22.293272856016667, 105.47337890701237, 53.17646656087882, 62.590750159690856 
118.82707382114951, 10.677527338674096, 22.29300424205518, 104.74676140351805, 53.34515119605848, 62.58892407790928 
117.9354591287975, 10.98518696563601, 22.29272528210128, 104.01874688443888, 53.5161401656532, 62.58707655302464 
117.04404804148069, 11.296008461525513, 22.292435843688292, 103.28928618466519, 53.68941054931903, 62.58520803939721 
116.15278988723291, 11.609916396443975, 22.292135802856567, 102.55832859878008, 53.86493904752343, 62.58331900046333 
115.26163223613918, 11.926834818098657, 22.291825044450594, 101.82582183060572, 54.04270197814969, 62.5814099087263 
114.3705209139468, 12.246687258327418, 22.291503462406524, 101.09171194092976, 54.222675272781, 62.579481245741675 
113.47940001606234, 12.569396738525313, 22.291170960029692, 100.35594329333037, 54.40483447264726, 62.57753350209576 
112.58821192191758, 12.894885773974615, 22.290827450261872, 99.61845849801274, 54.58915472421746, 62.575567177377934 
111.69689730969385, 13.223076377080453, 22.290472855937725, 98.87919835356836, 54.77561077441905, 62.57358278014656 
110.80539517139808, 13.553890059516558, 22.290107110030245, 98.1381017865637, 54.964176965465704, 62.5715808278878 
109.91364282828933, 13.887247833286784, 22.28973015588481, 97.39510578886181, 55.15482722927294, 62.5695618469679 
109.0215759466608, 14.223070210709828, 22.28934194744139, 96.65014535257689, 55.34753508144128, 62.567526372578584 
108.12912855398575, 14.561277203336035, 22.288942449444882, 95.903153402557, 55.5422736147847, 62.56547494867499 
107.2362330554441, 14.901788319806709, 22.288531637642976, 95.15406072628828, 55.73901549238149, 62.563408127906975 
106.34282025084961, 15.244522562667843, 22.28810949897145, 94.40279590110781, 55.93773294012369, 62.561326471542756 
105.44881935200591, 15.589398424151746, 22.287676031726527, 93.64928521861039, 56.13839773873952, 62.55923054938531 
104.55415800052359, 15.9363338809415, 22.28723124572418, 92.89345260612905, 56.34098121526289, 62.557120939681475 
