# MEX_intpoint_lon [deg], MEX_intpoint_lat [deg], MEX_intpoint_angle [deg], TGO_intpoint_lon [deg], TGO_intpoint_lat [deg], TGO_intpoint_angle [deg] 
-103.81698888915273, 20.391066326823992, 22.22840016723278, -144.6126221796763, 58.943842087546486, 62.530922905990245 
-104.7281769101026, 20.02830698253008, 22.228974369504165, -145.40065666724834, 58.71759064843659, 62.5331779755653 
-105.63767956320461, 19.666519857473304, 22.22953856685318, -146.18521877444851, 58.4928826561738, 62.5354271102459 
-106.54558590075823, 19.305793905709443, 22.23009259937429, -146.96642215159673, 58.269753337214865, 62.537669629199385 
-107.4519837242872, 18.94621742677354, 22.23063631927308, -147.74437675843464, 58.0482373043927, 62.53990485841529 
-108.35695955462512, 18.587878081057728, 22.231169590885777, -148.51918899440093, 57.82836857514722, 62.54213213089491 
-109.26059860348349, 18.230862904530177, 22.23169229068422, -149.29096182391518, 57.61018058872345, 62.544350786832695 
-110.16298474637969, 17.875258322757094, 22.232204307266176, -150.05979489684708, 57.393706222387365, 62.54656017378977 
-111.0642004968125, 17.521150164192115, 22.232705541331146, -150.82578466434722, 57.17897780670714, 62.548759646859516 
-111.9643269815781, 17.168623672699333, 22.233195905641704, -151.58902449021048, 56.966027139945766, 62.550948568824936 
-112.86344391712953, 16.81776351927862, 22.23367532497047, -152.34960475794227, 56.754885501607816, 62.553126310308244 
-113.76162958688816, 16.468653812963694, 22.23414373603285, -153.10761297369146, 56.54558366518187, 62.555292249912476 
-114.658960819424, 16.121378110865415, 22.234601087405522, -153.86313386521246, 56.33815191011734, 62.55744577435497 
-115.55551296742878, 15.776019427334417, 22.235047339431173, -154.61624947701276, 56.13262003307294, 62.55958627859292 
-116.45135988741252, 15.432660242219324, 22.235482464109086, -155.3670392618385, 55.92901735847221, 62.56171316594135 
-117.34657392006127, 15.091382508198079, 22.235906444972347, -156.1155801686471, 55.727372748399254, 62.563825848182944 
-118.24122587120031, 14.752267657161847, 22.236319276951424, -156.86194672720913, 55.52771461186704, 62.56592374567 
-119.1353849933142, 14.415396605632468, 22.23672096622457, -157.60621112947956, 55.330070913488235, 62.568006287419074 
-120.02911896758026, 14.080849759196068, 22.2371115300551, -158.3484433078725, 55.13446918157762, 62.57007291119758 
-120.92249388637993, 13.74870701593679, 22.237490996616003, -159.08871101056852, 54.94093651571352, 62.572123063602966 
-121.81557423625698, 13.419047768856556, 22.237859404801924, -159.8270798739809, 54.74949959378435, 62.57415620013457 
-122.70842288129862, 13.091950907267755, 22.23821680402889, -160.56361349250042, 54.560184678545326, 62.57617178525774 
-123.60110104692048, 12.767494817147812, 22.238563254022086, -161.29837348563584, 54.37301762370892, 62.578169292460984 
-124.4936683040429, 12.445757380445698, 22.238898824591917, -162.03141956266154, 54.18802387959182, 62.580148204305935 
-125.38618255365058, 12.12681597333224, 22.23922359539868, -162.76280958488053, 54.0052284983399, 62.58210801246998 
-126.27870001173332, 11.81074746338754, 22.239537655706304, -163.49259962560583, 53.82465613875195, 62.584048217782374 
-127.17127519461143, 11.49762820572035, 22.23984110412518, -164.22084402796045, 53.646331070721494, 62.58596833025327 
-128.06396090465236, 11.187534038016038, 22.240134048344895, -164.94759546059132, 53.47027717931608, 62.587867869096314 
-128.9568082163927, 10.880540274511068, 22.240416604856748, -165.672904971389, 53.296517968511274, 62.58974636274454 
-129.84986646308175, 10.576721698894042, 22.24068889866686, -166.39682203930175, 53.1250765645972, 62.59160334886011 
-130.74318322366912, 10.276152556134555, 22.24095106299987, -167.11939462432824, 52.955975719273574, 62.593438374337886 
-131.63680431026202, 9.978906543243394, 22.24120323899399, -167.84066921577033, 52.78923781244928, 62.59525099530266 
-132.53077375608282, 9.685056798968782, 22.24144557538754, -168.56069087882383, 52.62488485476139, 62.597040777101135 
-133.42513380396082, 9.394675892435881, 22.24167822819759, -169.27950329958196, 52.46293848982807, 62.59880729428749 
-134.31992489539607, 9.107835810738033, 22.24190136039096, -169.99714882852302, 52.303419996249474, 62.60055013060421 
-135.2151856602366, 8.82460794549059, 22.24211514154814, -170.71366852255107, 52.14635028936957, 62.60226887895713 
-136.11095290701422, 8.545063078359792, 22.24231974752064, -171.42910218565558, 51.99174992281187, 62.60396314138558 
-137.00726161398578, 8.269271365581597, 22.242515360081956, -172.14348840825258, 51.83963908980138, 62.605632529027424 
-137.90414492093132, 7.997302321486972, 22.242702166572958, -172.85686460526819, 51.6900376242845, 62.6072766620797 
-138.801634121762, 7.7292248010524975, 22.242880359541942, -173.56926705302254, 51.54296500185807, 62.608895169754476 
-139.6997586579937, 7.465106981497417, 22.24305013637988, -174.28073092496876, 51.39844034051894, 62.610487690230585 
-140.59854611314347, 7.205016342949994, 22.243211698951384, -174.99129032634107, 51.256482401243886, 62.61205387060117 
-141.49802220810938, 6.949019648208804, 22.24336525322192, -175.70097832776202, 51.11710958841079, 62.61359336681732 
-142.39821079759338, 6.69718292162635, 22.243511008881523, -176.40982699785815, 50.98033995007027, 62.61510584362828 
-143.29913386763144, 6.449571427144967, 22.24364917896592, -177.1178674349302, 50.84619117807739, 62.61659097451787 
-144.2008115342926, 6.206249645517062, 22.24377997947514, -177.82512979772315, 50.71468060809268, 62.618048441638024 
-145.1032620436119, 5.967281250744143, 22.243903628990402, -178.53164333533792, 50.585825219460936, 62.61947793573908 
-146.00650177282128, 5.732729085771386, 22.244020348289702, -179.2374364163264, 50.45964163497665, 62.620879156097324 
-146.91054523294252, 5.5026551374765615, 22.24413035996253, -179.9425365570087, 50.336146120543894, 62.6222518104403 
-147.8154050728064, 5.277120510994758, 22.244233888024375, 179.35302955095, 50.21535458473893, 62.623595614869224 
-148.72109208456158, 5.056185403422274, 22.244331157531384, 178.64923601366698, 50.097282578282886, 62.624910293779855 
-149.62761521073432, 4.839909076945435, 22.244422394195766, 177.94605770883982, 49.98194529343205, 62.626195579781125 
-150.53498155290194, 4.628349831442222, 22.244507824002465, 177.24347026018103, 49.86935756329307, 62.627451213612254 
-151.44319638203638, 4.421564976606705, 22.24458767282753, 176.54145001245897, 49.75953386106955, 62.628676944058505 
-152.35226315057736, 4.219610803648319, 22.244662166058763, 175.83997400711408, 49.65248829924738, 62.629872527865565 
-153.2621835062877, 4.02254255662009, 22.244731528219045, 175.13901995842232, 49.54823462872459, 62.631037729653045 
-154.1729573079434, 3.830414403431686, 22.244795982593022, 174.43856623017766, 49.446786237892454, 62.63217232182739 
-155.08458264290638, 3.6432794066050413, 22.24485575085744, 173.7385918128675, 49.34815615167381, 62.6332760844938 
-155.99705584662536, 3.461189493832015, 22.244911052715707, 173.039076301316, 49.25235703052427, 62.634348805368504 
-156.91037152410436, 3.284195428395099, 22.244962105537237, 172.33999987277053, 49.1594011694022, 62.63539027969014 
-157.82452257337715, 3.1123467795135467, 22.24500912400189, 171.6413432654088, 49.069300496712806, 62.63640031013192 
-158.73950021101842, 2.945691892678789, 22.2450523197501, 170.94308775724411, 48.98206657323163, 62.63737870671379 
-159.65529399971942, 2.784277860043885, 22.245091901039196, 170.24521514540731, 48.89771059101268, 62.63832528671524 
-160.57189187794967, 2.628150490933019, 22.24512807240614, 169.54770772578578, 48.81624337228582, 62.63923987458864 
-161.48928019172172, 2.477354282537601, 22.245161034337453, 168.85054827299953, 48.737675368348484, 62.640122301873795 
-162.40744372846862, 2.331932390866412, 22.24519098294648, 168.15372002069586, 48.662016658456174, 62.64097240711339 
-163.3263657530401, 2.1919266020173374, 22.245218109658556, 167.45720664214483, 48.58927694871598, 62.641790035770036 
-164.246028045815, 2.057377303838832, 22.245242600904582, 166.76099223111817, 48.51946557098759, 62.64257504014438 
-165.16641094292223, 1.9283234580489605, 22.245264637823112, 166.06506128303593, 48.45259148179574, 62.643327279295356 
-166.08749337855633, 1.8048025728798802, 22.245284395971716, 165.3693986763641, 48.388663261257996, 62.644046618962136 
-167.00925292936572, 1.6868506763149873, 22.24530204504776, 164.67398965424923, 48.327689112031564, 62.64473293148796 
-167.93166586088648, 1.5745022899856116, 22.245317748619012, 163.97881980637422, 48.269676858282835, 62.645386095746396 
-168.85470717598636, 1.4677904037928957, 22.2453316638645, 163.2838750510233, 48.2146339446829, 62.64600599706985 
-169.7783506652775, 1.3667464513196965, 22.245343941325928, 162.58914161734052, 48.16256743543245, 62.64659252718071 
-170.7025689594496, 1.271400286095826, 22.245354724669934, 161.89460602777095, 48.113484013318924, 62.64714558412485 
-171.62733358346802, 1.1817801587783567, 22.245364150461594, 161.20025508067087, 48.06738997880909, 62.64766507220851 
-172.55261501257473, 1.0979126953070593, 22.245372347949406, 160.50607583307553, 48.02429124917961, 62.648150901937484 
-173.47838273002333, 1.0198228760927952, 22.245379438862066, 159.81205558361322, 47.9841933576883, 62.64860298995972 
-174.40460528647324, 0.9475340162945295, 22.245385537217288, 159.11818185555393, 47.94710145278849, 62.64902125901126 
-175.33125036096146, 0.8810677472381273, 22.245390749142953, 158.4244423799822, 47.913020297388755, 62.64940563786506 
-176.2582848233643, 0.8204439990273588, 22.24539517271077, 157.73082507908413, 47.88195426816022, 62.64975606128366 
-177.18567479825597, 0.7656809843946345, 22.2453988977828, 157.0373180495375, 47.85390735489327, 62.65007246997504 
-178.11338573006546, 0.716795183835867, 22.24540200587078, 156.34390954599638, 47.828883159905594, 62.65035481055229 
-179.04138244942718, 0.6738013320705768, 22.24540457000885, 155.6505879646595, 47.80688489750314, 62.65060303549687 
-179.9696292406178, 0.6367124058649603, 22.24540665463932, 154.9573418269142, 47.78791539349546, 62.65081710312572 
179.10191009003478, 0.6055396132517603, 22.245408315512194, 154.26415976304594, 47.77197708476685, 62.65099697756211 
178.1732721448866, 0.580292384177376, 22.2454095995981, 153.57103049600516, 47.75907201890427, 62.65114262871038 
177.24449386497756, 0.5609783626023688, 22.245410545015122, 152.87794282522236, 47.74920185388335, 62.65125403223489 
176.31561245941958, 0.5476034000777767, 22.245411180969253, 152.1848856104626, 47.742367857812944, 62.65133116954245 
175.3866653342989, 0.5401715508153649, 22.245411527709, 151.49184775571203, 47.73857090873928, 62.65137402776939 
174.45769002122046, 0.5386850682658076, 22.24541159649375, 150.79881819308616, 47.737811494509934, 62.65138259977211 
173.52872410562375, 0.5431444032145181, 22.245411389576258, 150.10578586675365, 47.74008971269823, 62.651356884122194 
172.5998051550007, 0.5535482034005444, 22.245410900199136, 149.41273971686553, 47.74540527058805, 62.65129688510528 
171.6709706471461, 0.5698933146596213, 22.24541011260537, 148.719668663483, 47.75375748521925, 62.651202612724056 
170.74225789857178, 0.5921747835880901, 22.245409002062893, 148.0265615904942, 47.765145283493545, 62.65107408270555 
169.81370399321335, 0.620385861720183, 22.2454075349031, 147.33340732951297, 47.77956720234049, 62.65091131651232 
168.88534571156, 0.6545180112067572, 22.245405668573344, 146.6401946437502, 47.79702138894317, 62.65071434135758 
167.9572194603327, 0.6945609119793826, 22.2454033517033, 145.9469122118498, 47.817505601023065, 62.6504831902246 
167.0293612028366, 0.740502470379615, 22.245400524185072, 145.25354861168063, 47.84101720718319, 62.6502179018899 
166.1018063901092, 0.7923288292290329, 22.245397117267, 144.56009230407602, 47.86755318730867, 62.64991852095041 
165.17458989298308, 0.8500243793117661, 22.245393053661083, 143.86653161651128, 47.89711013302367, 62.64958509785449 
164.24774593517836, 0.9135717722374248, 22.24538824766365, 143.1728547267114, 47.92968424820345, 62.64921768893676 
163.32130802753568, 0.9829519346485103, 22.245382605289436, 142.47904964617837, 47.96527134954002, 62.64881635645672 
162.39530890349565, 1.058144083732992, 22.245376024418643, 141.78510420362997, 48.003866867159985, 62.6483811686409 
161.4697804559267, 1.139125743999153, 22.245368394956888, 141.09100602833948, 48.04546584529278, 62.647912199728616 
160.5447536753972, 1.2258727652668688, 22.245359599007845, 140.396742533367, 48.09006294298744, 62.64740953002133 
159.6202585899818, 1.3183593418261288, 22.245349511058272, 139.7023008986713, 48.13765243487576, 62.64687324593512 
158.69632420668702, 1.416558032711166, 22.245337998175216, 139.00766805409285, 48.18822821197986, 62.64630344005667 
157.77297845457431, 1.5204397830356413, 22.245324920215218, 138.31283066219586, 48.2417837825615, 62.645700211202126 
156.8502481296523, 1.62997394633214, 22.245310130045095, 137.61777510095894, 48.298312273010914, 62.64506366447926 
155.9281588416039, 1.7451283078370123, 22.245293473774073, 136.92248744630223, 48.35780642877231, 62.64439391135226 
155.00673496240677, 1.8658691086596388, 22.245274790997016, 136.22695345443867, 48.42025861530312, 62.643691069709284 
154.08599957689947, 1.9921610707735313, 22.245253915048306, 135.53115854403782, 48.4856608190643, 62.642955263932876 
153.16597443533757, 2.123967422765217, 22.2452306732662, 134.8350877781873, 48.55400464853816, 62.64218662497247 
152.24667990797897, 2.261249926275626, 22.245204887267114, 134.13872584614032, 48.62528133527064, 62.641385290419386 
151.32813494172865, 2.4039689030676294, 22.245176373229658, 133.4420570448334, 48.699481734934466, 62.640551404583945 
150.41035701886852, 2.552083262652743, 22.24514494218794, 132.74506526016052, 48.776596328409475, 62.639685118574384 
149.49336211788906, 2.705550530409365, 22.245110400333775, 132.04773394798778, 48.856615222876464, 62.6387865903778 
148.57716467643453, 2.8643268761246823, 22.24507254932737, 131.35004611489282, 48.93952815292037, 62.63785598494243 
147.66177755636633, 3.0283671428922014, 22.245031186616185, 130.65198429861192, 49.025324481638826, 62.63689347426159 
146.74721201094297, 3.1976248762970747, 22.244986105761342, 129.95353054817792, 49.1139932017516, 62.635899237458545 
145.83347765410824, 3.372052353821692, 22.2449370967714, 129.25466640372986, 49.20552293670668, 62.63487346087276 
144.92058243187537, 3.55160061440448, 22.24488394644285, 128.555372875976, 49.299901941778046, 62.63381633814672 
144.00853259578633, 3.7362194880856623, 22.244826438706948, 127.85563042529012, 49.39711810515052, 62.63272807031345 
143.0973326784229, 3.925857625674495, 22.24476435498253, 127.15541894042043, 49.497158948986616, 62.63160886588451 
142.18698547093945, 4.120462528373793, 22.244697474534096, 126.45471771678903, 49.6000116304702, 62.63045894093815 
141.2774920025831, 4.319980577298409, 22.244625574835023, 125.75350543435988, 49.70566294282155, 62.629278519207595 
140.36885152216217, 4.524357062826189, 22.244548431935087, 125.05176013505118, 49.81409931627834, 62.62806783216887 
139.46106148142096, 4.733536213720881, 22.244465820832048, 124.34945919966766, 49.925306819036656, 62.626827119128386 
138.55411752027285, 4.947461225968664, 22.24437751584674, 123.64657932432686, 50.03927115814633, 62.62555662730999 
137.64801345384296, 5.166074291271261, 22.24428329100108, 122.94309649635247, 50.15597768035406, 62.62425661194075 
136.7427412612667, 5.389316625140682, 22.24418292039868, 122.23898596960659, 50.27541137288834, 62.62292733633618 
135.8382910761885, 5.617128494542639, 22.244076178607344, 121.53422223923135, 50.39755686417939, 62.62156907198369 
134.9346511789028, 5.849449245037372, 22.243962841043125, 120.82877901576921, 50.522398424507315, 62.6201820986247 
134.03180799007728, 6.086217327369207, 22.243842684355336, 120.12262919862984, 50.64991996657145, 62.61876670433509 
133.12974606599693, 6.327370323457766, 22.24371548681207, 119.41574484886976, 50.78010504597376, 62.617323185603375 
132.22844809526563, 6.572844971746508, 22.243581028685593, 118.7080971612499, 50.91293686160851, 62.61585184740702 
131.32789489690265, 6.822577191865903, 22.243439092637285, 117.99965643553439, 51.04839825595059, 62.61435300328607 
130.42806541976847, 7.0765021085714785, 22.243289464101487, 117.29039204699198, 51.18647171523451, 62.612826975414066 
129.52893674325696, 7.334554074918533, 22.243131931667786, 116.58027241606052, 51.3271393695155, 62.611274094666406 
128.63048407918862, 7.596666694638277, 22.242966287461222, 115.8692649771323, 51.47038299260436, 62.60969470068514 
127.73268077484224, 7.862772843681928, 22.24279232751993, 115.15733614641674, 51.616184001866785, 62.6080891419409 
126.83549831706088, 8.132804690901821, 22.24260985216975, 114.444451288835, 51.76452345787832, 62.60645777579094 
125.93890633737153, 8.406693717840966, 22.242418666395146, 113.73057468389844, 51.91538206392501, 62.6048009685335 
125.04287261805736, 8.68437073760428, 22.242218580206263, 113.01566949052166, 52.06874016533985, 62.60311909545818 
124.147363099124, 8.965765912787594, 22.24200940900123, 112.29969771071764, 52.224577748664984, 62.601412540892376 
123.25234188610344, 9.250808772442124, 22.24179097392356, 111.5826201521214, 52.382874440628484, 62.599681698242776 
122.35777125864061, 9.539428228054716, 22.24156310221401, 110.86439638928475, 52.54360950692494, 62.59792697003284 
121.46361167981122, 9.831552588525849, 22.241325627556503, 110.14498472368383, 52.70676185078812, 62.59614876793491 
120.56982180612088, 10.127109574130097, 22.241078390417492, 109.42434214237682, 52.87231001134371, 62.594347512797896 
119.67635849814006, 10.426026329444928, 22.240821238378665, 108.70242427524829, 53.04023216172964, 62.59252363466922 
118.78317683173121, 10.728229435236651, 22.240554026462032, 107.97918535077238, 53.21050610697088, 62.5906775728118 
117.8902301098286, 11.033644919293474, 22.240276617447513, 107.25457815022475, 53.38310928159519, 62.58880977571505 
116.99746987473489, 11.342198266197997, 22.239988882182146, 106.52855396027047, 53.5580187469757, 62.586920701100595 
116.10484592090233, 11.653814426033266, 22.239690699880768, 105.8010625238511, 53.73521118838554, 62.5850108159216 
115.21230630816999, 11.96841782201806, 22.239381958417653, 105.07205198929178, 53.914662911749076, 62.58308059635633 
114.31979737543357, 12.285932357069266, 22.239062554608754, 104.34146885754507, 54.09634984007368, 62.58113052779532 
113.4272637547279, 12.606281419290445, 22.238732394484124, 103.60925792748537, 54.280247509545326, 62.57916110482209 
112.5346483857072, 12.92938788638794, 22.238391393550174, 102.87536223916376, 54.46633106527035, 62.577172831187305 
111.64189253051278, 13.255174129016826, 22.238039477041443, 102.13972301492952, 54.65457525664505, 62.57516621977646 
110.74893578902272, 13.583562013061382, 22.237676580161434, 101.4022795983205, 54.844954432333864, 62.57314179257023 
109.85571611448343, 13.914472900855749, 22.23730264831227, 100.66296939062114, 55.037442534836025, 62.5711000805984 
108.96216982952768, 14.247827651352205, 22.23691763731283, 99.92172778498217, 55.2320130946196, 62.56904162388621 
108.06823164258957, 14.583546619246285, 22.236521513605023, 99.17848809799204, 55.42863922380088, 62.56696697139374 
107.17383466473221, 14.921549653069007, 22.236114254447976, 98.43318149858646, 55.627293609345735, 62.56487668094799 
106.27891042690946, 15.26175609225847, 22.235695848099752, 97.68573693417679, 55.82794850576878, 62.56277131916737 
105.38338889768949, 15.60408476322423, 22.23526629398649, 96.93608105387504, 56.03057572730491, 62.56065146137875 
104.48719850147283, 15.948453974419763, 22.234825602858514, 96.18413812868745, 56.235146639526064, 62.55851769152689 
