# MEX_intpoint_lon [deg], MEX_intpoint_lat [deg], MEX_intpoint_angle [deg], TGO_intpoint_lon [deg], TGO_intpoint_lat [deg], TGO_intpoint_angle [deg] 
-104.57861664262049, 20.567810754257998, 22.68213344297228, -171.11575377385788, 59.031484753754754, 62.5315559344625 
-105.47600323727487, 20.1814116077034, 22.682762975019987, -171.90851034521543, 58.80775440795964, 62.533782235171074 
-106.37168211117894, 19.796115700530265, 22.683380937722596, -172.69775404713388, 58.58553919316006, 62.53600275254446 
-107.26575215922996, 19.412014610788844, 22.68398715669, -173.48359852913168, 58.36487445519098, 62.538216814284745 
-108.15831072813894, 19.02919923675571, 22.684581471540408, -174.26615379731356, 58.14579491921644, 62.54042375473697 
-109.04945359413426, 18.647759817908607, 22.685163735919858, -175.04552634073184, 57.92833470804151, 62.54262291507655 
-109.93927494190876, 18.267785954985765, 22.685733817504843, -175.8218192530576, 57.71252735940408, 62.54481364348881 
-110.82786734467031, 17.889366629095885, 22.686291597988095, -176.59513234971686, 57.49840584229537, 62.54699529534094 
-111.71532174516723, 17.512590219846647, 22.686836973047498, -177.36556228064586, 57.28600257235557, 62.54916723334604 
-112.60172743756843, 17.137544522462118, 22.687369852298332, -178.133202638819, 57.075349426389174, 62.55132882771927 
-113.4871720500896, 16.764316763860993, 22.68789015922892, -178.8981440647006, 56.866477756041895, 62.55347945632659 
-114.37174152826427, 16.392993617669656, 22.688397831119754, -179.66047434676906, 56.65941840067944, 62.55561850482529 
-115.25552011876924, 16.023661218145797, 22.6888928189463, 179.57972148174073, 56.454201699506214, 62.55774536679703 
-116.13859035372191, 15.656405172989547, 22.689375087265617, 178.8223610497333, 56.2508575029603, 62.55985944387313 
-117.02103303537528, 15.291310575021372, 22.689844614087043, 178.06736455864797, 56.049415183419306, 62.56196014585205 
-117.9029272211462, 14.928462012706557, 22.690301390726965, 177.31465469621725, 55.849903645249846, 62.564046890809315 
-118.78435020891806, 14.56794357950841, 22.69074542164822, 176.5641565534562, 55.652351334232165, 62.56611910519994 
-119.66537752256974, 14.209838882052962, 22.691176724283938, 175.81579754475382, 55.45678624638955, 62.568176223953124 
-120.54608289768775, 13.854231047089963, 22.691595328846535, 175.06950733094266, 55.26323593625102, 62.57021769055958 
-121.42653826742756, 13.501202727235672, 22.69200127812178, 174.3252177452245, 55.07172752457435, 62.57224295715161 
-122.30681374849637, 13.150836105484938, 22.692394627248422, 173.58286272183662, 54.88228770555518, 62.57425148457564 
-123.18697762723694, 12.803212898480785, 22.6927754434836, 172.8423782273444, 54.69494275354685, 62.576242742457794 
-124.06709634579865, 12.458414358531606, 22.69314380595446, 172.10370219445198, 54.50971852931439, 62.57821620926221 
-124.94723448838859, 12.116521274366917, 22.693499805396222, 171.36677445822517, 54.32664048584499, 62.58017137234249 
-125.82745476760198, 11.777613970624591, 22.69384354387708, 170.63153669462466, 54.145733673736416, 62.582107727986106 
-126.70781801083682, 11.441772306063404, 22.694175134510395, 169.89793236125274, 53.96702274618367, 62.58402478145229 
-127.58838314680509, 11.109075670496452, 22.694494701154476, 169.16590664021754, 53.790531963583476, 62.58592204700308 
-128.46920719215618, 10.779602980442597, 22.694802378100388, 168.43540638302554, 53.616285197775, 62.58779904792803 
-129.3503452382371, 10.453432673494403, 22.69509830974824, 167.70638005741392, 53.44430593593507, 62.589655316562514 
-130.231850438016, 10.130642701402959, 22.69538265027239, 166.9787776960393, 53.274617284144334, 62.59149039429989 
-131.11377399320392, 9.811310521881387, 22.69565556327588, 166.25255084694163, 53.107241970641226, 62.59330383159752 
-131.99616514161218, 9.495513089130915, 22.69591722143486, 165.5276525257062, 52.94220234877901, 62.59509518797707 
-132.87907114478986, 9.18332684309493, 22.696167806133122, 164.80403716924843, 52.779520399701106, 62.596864032018956 
-133.76253727598868, 8.874827697448515, 22.696407507087518, 164.08166059115035, 52.61921773474882, 62.59860994135135 
-134.64660680850804, 8.570091026332978, 22.6966365219646, 163.3604799384802, 52.461315597615595, 62.600332502633755 
-135.5313210044773, 8.269191649846741, 22.696855055989026, 162.64045365002826, 52.30583486626071, 62.6020313115355 
-136.41671910413564, 7.9722038183062915, 22.697063321544345, 161.92154141589643, 52.152796054595235, 62.60370597270903 
-137.30283831567442, 7.679201195293147, 22.697261537766472, 161.20370413838043, 52.00221931395255, 62.605356099758716 
-138.1897138057094, 7.39025683950479, 22.697449930130695, 160.48690389408648, 51.85412443435512, 62.60698131520469 
-139.07737869045525, 7.105443185430152, 22.697628730032456, 159.7711038972262, 51.70853084558866, 62.60858125044261 
-139.96586402767508, 6.824832022872672, 22.697798174362656, 159.0562684640366, 51.565457618094946, 62.61015554569886 
-140.8551988094833, 6.548494475346123, 22.697958505078006, 158.34236297827323, 51.42492346369322, 62.611703849982106 
-141.74540995608018, 6.276500977371418, 22.698109968766953, 157.62935385772786, 51.28694673614095, 62.61322582103074 
-142.6365223104993, 6.00892125070486, 22.698252816211745, 156.91720852172278, 51.15154543154295, 62.61472112525695 
-143.52855863445154, 5.745824279531112, 22.6983873019473, 156.2058953595369, 51.01873718861896, 62.616189437687176 
-144.42153960534966, 5.487278284656829, 22.698513683817342, 155.4953836997199, 50.888539288838075, 62.617630441899756 
-145.3154838145979, 5.233350696743721, 22.698632222528488, 154.78564378025345, 50.76096865642933, 62.61904382995916 
-146.21040776723376, 4.984108128622437, 22.698743181202797, 154.07664671951892, 50.63604185827653, 62.62042930234793 
-147.1063258830072, 4.73961634673149, 22.698846824929465, 153.3683644880338, 50.513775103705676, 62.62178656789571 
-148.00325049898314, 4.499940241728359, 22.698943420316127, 152.66076988092038, 50.394184244172735, 62.62311534370634 
-148.90119187375277, 4.265143798322439, 22.699033235040456, 151.9538364910714, 50.2772847728594, 62.62441535508253 
-149.80015819333727, 4.035290064382485, 22.69911653740266, 151.2475386829792, 50.16309182418436, 62.62568633544897 
-150.70015557886705, 3.8104411193737877, 22.699193595879365, 150.54185156719612, 50.05162017323695, 62.62692802627353 
-151.60118809611663, 3.5906580421830885, 22.699264678679544, 149.83675097539572, 49.94288423514026, 62.6281401769872 
-152.50325776697375, 3.376000878391785, 22.699330053303125, 149.1322134360048, 49.836898064350265, 62.62932254490285 
-153.40636458291755, 3.1665286070605663, 22.69938998610277, 148.42821615037843, 49.73367535389744, 62.63047489513279 
-154.31050652057812, 2.962299107091164, 22.699444741849348, 147.7247369694906, 49.63322943457714, 62.631597000505835 
-155.21567955944522, 2.7633691232330078, 22.69949458330192, 147.0217543711148, 49.53557327409456, 62.63268864148349 
-156.1218777017903, 2.5697942318051306, 22.69953977078255, 146.31924743746947, 49.44071947617047, 62.633749606076144 
-157.0290929948603, 2.3816288062055713, 22.699580561756573, 145.6171958333049, 49.34868027961291, 62.634779689758766 
-157.9373155553979, 2.1989259822824727, 22.699617210418992, 144.9155797844083, 49.259467557360566, 62.635778695386925 
-158.8465335965356, 2.021737623643003, 22.699649967287357, 144.2143800565058, 49.17309281550304, 62.63674643311292 
-159.75673345710658, 1.85011428697764, 22.699679078801854, 143.51357793453994, 49.08956719228291, 62.63768272030253 
-160.66789963340756, 1.6841051874789372, 22.699704786932962, 142.81315520230262, 49.0089014570847, 62.6385873814522 
-161.58001481344294, 1.5237581644349698, 22.699727328797344, 142.11309412240516, 48.93110600941525, 62.63946024810743 
-162.49305991367135, 1.369119647078742, 22.699746936282374, 141.41337741656562, 48.856190877880145, 62.64030115878179 
-163.4070141182693, 1.2202346207754065, 22.69976383567983, 140.7139882461972, 48.78416571916052, 62.641109958877585 
-164.32185492091855, 1.0771465936298168, 22.699778247329288, 140.01491019327952, 48.71503981699448, 62.64188650060766 
-165.2375581691142, 0.9398975635970517, 22.69979038527158, 139.31612724149747, 48.64882208116704, 62.64263064291887 
-166.15409811098473, 0.8085279861785071, 22.699800456912936, 138.61762375763163, 48.58552104651265, 62.64334225141741 
-167.0714474446045, 0.6830767427858271, 22.69980866270001, 137.9193844731852, 48.52514487193373, 62.64402119829599 
-167.9895773697719, 0.5635811098543974, 22.699815195806554, 137.22139446623328, 48.46770133943906, 62.64466736226307 
-168.90845764221655, 0.4500767287870841, 22.699820241831805, 136.52363914348052, 48.41319785320508, 62.64528062847449 
-169.82805663019096, 0.3425975768077877, 22.69982397851126, 135.82610422251406, 48.36164143866356, 62.645860888467304 
-170.74834137339266, 0.24117593880287688, 22.699826575440056, 135.12877571423866, 48.313038741618584, 62.646408040096354 
-171.669277644154, 0.1458423802266673, 22.69982819380943, 134.4316399054817, 48.267396027395726, 62.64692198747346 
-172.59083001082834, 0.05662572114504972, 22.699828986156493, 133.73468334175652, 48.22471918002618, 62.64740264090928 
-173.51296190329256, -0.026446988510988655, 22.699829096127782, 133.03789281017237, 48.18501370146839, 62.64784991685836 
-174.43563568047725, -0.10335049241307935, 22.699828658256816, 132.3412553224795, 48.14828471086974, 62.648263737867005 
-175.35881269982787, -0.17406134995833342, 22.699827797755944, 131.64475809823955, 48.11453694387023, 62.64864403252462 
-176.28245338859278, -0.23855795698480572, 22.699826630322843, 130.9483885481098, 48.083774751950585, 62.6489907354178 
-177.20651731682517, -0.2968205650202673, 22.699825261961845, 130.252134257232, 48.05600210182666, 62.64930378708852 
-178.1309632719801, -0.3488312990091031, 22.69982378882036, 129.55598296871557, 48.0312225748916, 62.649583133995016 
-179.05574933498048, -0.39457417346594065, 22.699822297040633, 128.85992256720553, 48.009439366708, 62.64982872847679 
-179.98083295761944, -0.43403510700913084, 22.699820862626968, 128.16394106252608, 47.99065528655081, 62.65004052872293 
179.09382895883877, -0.4672019352315259, 22.699819551328687, 127.46802657339046, 47.974872757002956, 62.650218498744245 
178.16827998400302, -0.4940644218707944, 22.699818418538886, 126.77216731116852, 47.962093813604284, 62.650362608348935 
177.24256407779222, -0.5146142682463128, 22.69981750920921, 126.07635156370254, 47.95232010455524, 62.65047283312237 
176.31672550911725, -0.528845120934742, 22.6998168577807, 125.38056767916338, 47.94555289047585, 62.65054915441036 
175.39080877396233, -0.5367525776615372, 22.69981648813081, 124.68480404993788, 47.94179304422077, 62.65059155930666 
174.464858513025, -0.5383341913908256, 22.69981641353671, 123.98904909653953, 47.94104105075091, 62.650600040643866 
173.53891942907313, -0.5335894726015387, 22.699816636654845, 123.29329125153338, 47.94329700706202, 62.650574596988804 
172.6130362041811, -0.522519889742966, 22.69981714951688, 122.59751894346736, 47.948560622170405, 62.65051523264136 
171.68725341700622, -0.5051288678684194, 22.699817933541926, 121.90172058080181, 47.95683121715576, 62.650421957637526 
170.76161546026728, -0.48142178545102426, 22.699818959565143, 121.20588453582798, 47.96810772526118, 62.65029478775616 
169.836166458585, -0.45140596939116834, 22.699820187882533, 120.50999912856825, 47.98238869204975, 62.65013374452985 
168.9109501868446, -0.4150906882304615, 22.699821568312096, 119.81405261064904, 47.999672275617726, 62.64993885525948 
167.98600998923544, -0.37248714359229906, 22.69982304027095, 119.11803314913763, 48.01995624686322, 62.64971015303279 
167.06138869912337, -0.3236084598744755, 22.699824532868643, 118.42192881033526, 48.043237989810045, 62.64944767674654 
166.13712855990389, -0.2684696722242076, 22.699825965016277, 117.72572754351673, 48.06951450198557, 62.64915147113274 
165.21327114698292, -0.20708771283098087, 22.69982724555146, 117.02941716460829, 48.098782394851554, 62.64882158678834 
164.28985729102578, -0.13948139557740702, 22.69982827337884, 116.3329853397946, 48.13103789428684, 62.648458080208584 
163.3669270026096, -0.06567139909280108, 22.699828937626005, 115.63641956904553, 48.1662768411204, 62.648061013824154 
162.44451939840826, 0.014319751741320672, 22.69982911781467, 114.93970716955312, 48.204494691713194, 62.64763045604149 
161.52267262903305, 0.10046770578050622, 22.699828684046796, 114.24283525906974, 48.24568651858723, 62.647166481286966 
160.60142380864465, 0.19274630704415913, 22.69982749720543, 113.54579073913636, 48.289847011099866, 62.64666917005374 
159.68080894644459, 0.2911276175188673, 22.699825409170074, 112.84856027819183, 48.33697047616142, 62.64613860895257 
158.76086288014753, 0.3955819412739506, 22.69982226304612, 112.15113029455169, 48.38705083899381, 62.645574890765104 
157.84161921152634, 0.5060778498216834, 22.699817893408266, 111.4534869392462, 48.44008164392794, 62.64497811450062 
156.92311024411458, 0.6225822086518519, 22.699812126557422, 110.755616078706, 48.49605605523748, 62.64434838545538 
156.00536692314213, 0.745060204867698, 22.699804780790853, 110.05750327728364, 48.55496685800602, 62.64368581527483 
155.08841877777112, 0.8734753758480845, 22.699795666685123, 109.35913377959935, 48.61680645902518, 62.642990522018394 
154.17229386569016, 1.0077896388586918, 22.69978458739159, 108.66049249269773, 48.6815668877205, 62.64226263022683 
153.25701872011675, 1.1479633215334277, 22.699771338943904, 107.96156396800306, 48.749239797102014, 62.64150227099169 
152.34261829924793, 1.293955193145899, 22.69975571057722, 107.26233238305915, 48.819816464736206, 62.640709582027185 
151.42911593819113, 1.4457224965896134, 22.699737485058684, 106.5627815230398, 48.89328779373596, 62.63988470774407 
150.51653330339835, 1.6032209809850129, 22.69971643902865, 105.8628947620154, 48.96964431376475, 62.63902779932506 
149.60489034961753, 1.7664049348307536, 22.699692343352353, 105.16265504395997, 49.048876182051515, 62.63813901480237 
148.69420527936768, 1.9352272196166707, 22.699664963481403, 104.46204486348303, 49.13097318441199, 62.63721851913648 
147.7844945049347, 2.1096393038157006, 22.699634059824746, 103.76104624626966, 49.21592473627271, 62.63626648429621 
146.8757726128785, 2.2895912971726995, 22.699599388128497, 103.05964072921151, 49.30371988369306, 62.63528308934018 
145.96805233103254, 2.475031985208433, 22.699560699864286, 102.35780934021044, 49.39434730438128, 62.63426852049897 
145.06134449797116, 2.665908863857978, 22.69951774262535, 101.65553257763644, 49.487795308699496, 62.63322297125817 
144.15565803491185, 2.8621681741639384, 22.699470260530237, 100.95279038941982, 49.58405184065319, 62.63214664244206 
143.25099992001392, 3.0637549369460535, 22.699417994633134, 100.24956215175743, 49.683104478860024, 62.63103974229742 
142.34737516502764, 3.270612987370328, 22.699360683340675, 99.54582664741137, 49.784940437492956, 62.629902486577784 
141.44478679424356, 3.482685009342547, 22.699298062834426, 98.8415620435782, 49.88954656719223, 62.62873509862751 
140.54323582568475, 3.6999125696529194, 22.699229867498556, 98.13674586930483, 49.996909355940765, 62.62753780946561 
139.64272125448107, 3.9222361518004702, 22.69915583035224, 97.43135499242752, 50.107014929897176, 62.62631085786916 
138.74324003835883, 4.14959518942824, 22.69907568348603, 96.72536559600779, 50.21984905418054, 62.625054490456016 
137.84478708517648, 4.3819280993024075, 22.698989158501746, 96.01875315423958, 50.335397133600914, 62.62376896176663 
136.94735524243228, 4.6191723137709255, 22.69889598695535, 95.31149240779943, 50.4536442133289, 62.6224545343448 
136.0509352886671, 4.861264312639941, 22.698795900802025, 94.603557338611, 50.57457497949819, 62.62111147881705 
135.15551592668308, 5.108139654408527, 22.698688632843112, 93.89492114399384, 50.698173759733926, 62.61974007397063 
134.2610837784966, 5.3597330068052464, 22.6985739171741, 93.18555621016489, 50.824424523600236, 62.618340606829555 
133.3676233819422, 5.615978176572492, 22.698451489633314, 92.47543408505992, 50.95331088295917, 62.61691337272869 
132.47511718884186, 5.876808138447597, 22.69832108825039, 91.76452545044046, 51.0848160922343, 62.61545867538584 
131.5835455646559, 6.142155063292027, 22.698182453694322, 91.05280009325077, 51.218923048570375, 62.61397682697126 
130.69288678952768, 6.411950345323379, 22.69803532972015, 90.34022687618695, 51.35561429188189, 62.6124681481745 
129.80311706063713, 6.6861246284069376, 22.697879463613987, 89.6267737074398, 51.49487200478145, 62.61093296826867 
128.91421049577738, 6.964607831367126, 22.69771460663551, 88.91240750957023, 51.63667801238001, 62.60937162517124 
128.02613913806934, 7.2473291722811695, 22.69754051445764, 88.19709418747507, 51.781013781949575, 62.6077844655019 
127.13887296173091, 7.53421719172055, 22.69735694760257, 87.4807985953988, 51.927860422439515, 62.606171844636776 
126.25237987881837, 7.82519977490841, 22.697163671873714, 86.76348450294489, 52.07719868383676, 62.60453412675908 
125.36662574686007, 8.120204172763362, 22.696960458782954, 86.04511456003885, 52.22900895635988, 62.60287168490552 
124.48157437730356, 8.41915702180333, 22.696747085972664, 85.32565026079212, 52.383271269476985, 62.601184901009134 
123.59718754470174, 8.721984362884944, 22.69652333763188, 84.60505190621473, 52.53996529073666, 62.59947416593725 
122.71342499656379, 9.028611658757116, 22.696289004906124, 83.88327856572184, 52.69907032440071, 62.59773987952536 
121.83024446380284, 9.33896381040912, 22.696043886300355, 83.16028803737713, 52.86056530986748, 62.595982450606094 
120.94760167171232, 9.652965172196577, 22.69578778807442, 82.43603680681318, 53.0244288198735, 62.59420229703315 
120.06545035141, 9.970539565730222, 22.69552052463061, 81.71048000476743, 53.1906390584612, 62.59239984570062 
119.18374225168964, 10.291610292515305, 22.6952419188927, 80.98357136316844, 53.35917385869962, 62.59057553255631 
118.30242715122611, 10.616100145330751, 22.69495180267602, 80.25526316970537, 53.53001068014457, 62.588729802610445 
117.42145287108387, 10.943931418339929, 22.69465001704802, 79.52550622081061, 53.70312660602431, 62.58686310993804 
116.54076528748227, 11.275025915926491, 22.694336412678954, 78.7942497729821, 53.878498340136, 62.58497591767586 
115.66030834477768, 11.609304960250482, 22.694010850182057, 78.06144149236965, 54.05610220343758, 62.583068698013356 
114.78002406862522, 11.94668939752216, 22.693673200442888, 77.32702740254572, 54.23591413031916, 62.58114193217738 
113.89985257929041, 12.287099602992178, 22.69332334493733, 76.59095183037857, 54.41790966453727, 62.57919611041085 
113.01973210508415, 12.63045548465895, 22.692961176037834, 75.85315734992177, 54.602063954794545, 62.57723173194464 
112.13959899590164, 12.976676485695103, 22.69258659730752, 75.11358472423133, 54.78835174994643, 62.575249304963386 
111.25938773685098, 13.32568158559704, 22.692199523781625, 74.37217284501753, 54.97674739381628, 62.573249346564204 
110.37903096196253, 13.67738930006257, 22.691799882236097, 73.62885867003558, 55.16722481959841, 62.57123238270884 
109.49845946797753, 14.031717679603386, 22.691387611442803, 72.88357715811532, 55.359757543828636, 62.56919894816877 
108.61760222821916, 14.388584306900546, 22.69096266241104, 72.13626120172614, 55.55431865990025, 62.56714958646319 
107.7363864065573, 14.74790629291225, 22.69052499861506, 71.38684155697051, 55.750880831102485, 62.565084849790196 
106.8547373714833, 15.109600271744933, 22.69007459620729, 70.63524677089408, 55.94941628315769, 62.563005298950245 
105.9725787103195, 15.4735823942996, 22.68961144421678, 69.88140310599847, 56.14989679623168, 62.56091150326266 
105.08983224359382, 15.839768320707245, 22.689135544732864, 69.12523446183685, 56.35229369639123, 62.558804040474456 
