# MEX_intpoint_lon [deg], MEX_intpoint_lat [deg], MEX_intpoint_angle [deg], TGO_intpoint_lon [deg], TGO_intpoint_lat [deg], TGO_intpoint_angle [deg] 
-104.08758214234817, 20.454996271553508, 22.38655555010309, -153.3362625433196, 59.12547446603552, 62.52861700274462 
-104.99403751608186, 20.083886169531866, 22.38714899463509, -154.13434858336979, 58.904594018787066, 62.5308107264748 
-105.89879705159039, 19.71379358931459, 22.387731898708093, -154.92887845248327, 58.6851966119235, 62.532998834443866 
-106.80195327655511, 19.344808478385783, 22.388304097366614, -155.71996569311239, 58.46731772267158, 62.53518066402643 
-107.70359736566375, 18.9770201192453, 22.388865438415717, -156.50772026237777, 58.25099220017719, 62.53735555904181 
-108.60381911308126, 18.610517146731205, 22.389415782440665, -157.29224865380672, 58.03625428387301, 62.53952286993935 
-109.50270690633738, 18.24538756459646, 22.389955002811035, -158.07365401472717, 57.82313762084225, 62.541681953975655 
-110.40034770150227, 17.881718761303105, 22.39048298566955, -158.85203625944763, 57.61167528222554, 62.54383217538471 
-111.29682699953081, 17.51959752499892, 22.390999629905522, -159.62749217835503, 57.401899778715894, 62.54597290554023 
-112.19222882366394, 17.159110057644256, 22.391504847113136, -160.40011554306085, 57.19384307518474, 62.54810352311047 
-113.08663569778464, 16.800341988258356, 22.391998561534532, -161.16999720772816, 56.98753660447929, 62.55022341420559 
-113.98012862563357, 16.443378385256832, 22.392480709987893, -161.93722520670858, 56.78301128043073, 62.55233197251748 
-114.87278707079788, 16.088303767853535, 22.392951241780676, -162.7018848486184, 56.580297510109844, 62.55442859945182 
-115.76468893739418, 15.735202116501869, 22.39341011860804, -163.4640588069807, 56.379425205365585, 62.55651270425293 
-116.65591055137409, 15.384156882352642, 22.393857314436737, -164.2238272075576, 56.18042379368026, 62.55858370412104 
-117.5465266423891, 15.03525099570656, 22.39429281537465, -164.98126771249562, 55.983322228373304, 62.560641024322166 
-118.4366103261569, 14.688566873441868, 22.394716619526044, -165.73645560140272, 55.78814899818427, 62.56268409829036 
-119.32623308728057, 14.344186425398306, 22.39512873683299, -166.48946384947422, 55.59493213626436, 62.564712367723274 
-120.21546476247696, 14.002191059700928, 22.395529188902916, -167.24036320278097, 55.40369922860396, 62.56672528266969 
-121.10437352417824, 13.662661687008184, 22.395918008822814, -167.98922225083032, 55.2144774219231, 62.568722301610535 
-121.99302586447698, 13.325678723670467, 22.39629524096016, -168.7361074965075, 55.02729343104989, 62.57070289153244 
-122.88148657939102, 12.99132209378671, 22.396660940750913, -169.4810834235008, 54.84217354581115, 62.57266652799435 
-123.76981875343122, 12.659671230148172, 22.39701517447491, -170.2242125613128, 54.65914363745842, 62.57461269518748 
-124.6580837444602, 12.33080507405986, 22.39735801901896, -170.96555554795407, 54.47822916465123, 62.57654088598807 
-125.54634116883696, 12.004802074031733, 22.397689561627967, -171.70517119041463, 54.29945517901866, 62.57845060200384 
-126.43464888684701, 11.68174018333331, 22.398009899644364, -172.44311652300462, 54.122846330319575, 62.580341353613676 
-127.32306298842425, 11.361696856406658, 22.39831914023632, -173.17944686365172, 53.94842687122041, 62.58221266000084 
-128.21163777917423, 11.044749044134676, 22.398617400115075, -173.9142158682411, 53.776220661709175, 62.58406404918004 
-129.1004257667159, 10.730973187962839, 22.39890480524164, -174.6474755830799, 53.606251173163116, 62.5858950580182 
-129.98947764736198, 10.420445212874576, 22.399181490523553, -175.3792764955651, 53.4385414920871, 62.58770523224926 
-130.8788422931637, 10.113240519221778, 22.39944759950172, -176.10966758313137, 53.27311432353863, 62.58949412648301 
-131.76856673935006, 9.809433973414162, 22.399703284028167, -176.8386963605519, 53.109991994255196, 62.59126130420836 
-132.6586961721965, 9.509099897472515, 22.399948703934786, -177.56640892566355, 52.94919645549863, 62.59300633779089 
-133.5492739173611, 9.212312057453158, 22.400184026693793, -178.29285000358365, 52.79074928563087, 62.594728808465085 
-134.44034142873141, 8.919143650752606, 22.40040942707009, -179.0180629894839, 52.6346716924347, 62.59642830632128 
-135.33193827782864, 8.629667292303466, 22.400625086766304, -179.74208998998486, 52.48098451519261, 62.59810443028772 
-136.22410214381867, 8.343954999674605, 22.40083119406067, 179.53502813676906, 52.32970822653636, 62.599756788107456 
-137.11686880418358, 8.062078177090854, 22.401027943438457, 178.81325174229622, 52.1808629340796, 62.60138499631083 
-138.01027212611012, 7.784107598389501, 22.401215535217297, 178.09254235016974, 52.0344683818449, 62.60298868018325 
-138.9043440586545, 7.5101133889329015, 22.40139417516705, 177.37286261956118, 51.89054395149654, 62.60456747372884 
-139.7991146257447, 7.240165006499256, 22.401564074124497, 176.65417630988512, 51.74910866339003, 62.60612101962976 
-140.69461192008563, 6.974331221175229, 22.401725447603628, 175.93644824649462, 51.61018117744853, 62.60764896920181 
-141.590862098032, 6.712680094277016, 22.40187851540183, 175.21964428738042, 51.473779793876396, 62.60915098234619 
-142.48788937549736, 6.455278956328462, 22.402023501202628, 174.50373129082828, 51.33992245371932, 62.6106267274977 
-143.38571602496864, 6.2021943841272815, 22.402160632175406, 173.78867708399088, 51.20862673928072, 62.61207588156977 
-144.28436237369644, 5.95349217693305, 22.40229013857275, 173.07445043233207, 51.07990987440306, 62.61349812989621 
-145.18384680313181, 5.709237331812816, 22.402412253325817, 172.3610210099038, 50.95378872462297, 62.61489316617025 
-146.08418574968138, 5.469494018182819, 22.402527211638386, 171.6483593704169, 50.830279797208526, 62.61626069238066 
-146.98539370685248, 5.234325551587102, 22.40263525058001, 170.9364369190683, 50.7093992410868, 62.61760041874562 
-147.88748322885874, 5.003794366756445, 22.40273660867892, 170.2252258850901, 50.59116284666951, 62.61891206364407 
-148.7904649357578, 4.777961989993159, 22.402831525515154, 169.51469929498563, 50.475586045584386, 62.620195353545284 
-149.69434752018958, 4.556889010930086, 22.402920241314412, 168.80483094642037, 50.362683910319454, 62.621450022936294 
-150.59913775578377, 4.340635053714077, 22.403002996543275, 168.09559538273638, 50.25247115378742, 62.62267581424792 
-151.50484050730256, 4.129258747666884, 22.403080031506256, 167.38696786806005, 50.14496212881701, 62.62387247777925 
-152.41145874258234, 3.9228176974783606, 22.403151585945192, 166.6789243629746, 50.04017082757779, 62.62503977162087 
-153.3189935463361, 3.721368452989267, 22.403217898641575, 165.97144150072984, 49.93811088094486, 62.62617746157727 
-154.22744413587432, 3.5249664786229338, 22.403279207022287, 165.26449656396233, 49.8387955578098, 62.62728532108815 
-155.1368078787996, 3.3336661225269695, 22.4033357467693, 164.5580674619013, 49.742237764343436, 62.6283631311495 
-156.04708031272605, 3.1475205854881985, 22.403387751433858, 163.8521327080351, 49.64845004321669, 62.62941068023394 
-156.95825516706986, 2.9665818896857297, 22.40343545205554, 163.14667139821614, 49.55744457278473, 62.630427764211 
-157.87032438695368, 2.790900847348536, 22.403479076786954, 162.44166318918053, 49.46923316623992, 62.6314141862677 
-158.78327815926232, 2.620527029385581, 22.40351885052426, 161.73708827746222, 49.383827270738834, 62.6323697568288 
-159.69710494088096, 2.455508734057663, 22.40355499454423, 161.03292737868054, 49.301237966508246, 62.63329429347784 
-160.61179148914354, 2.2958929557612735, 22.403587726148217, 160.3291617071812, 49.22147596593501, 62.63418762087874 
-161.5273228945106, 2.14172535399587, 22.403617258313602, 159.62577295601272, 49.144551612644406, 62.635049570697994 
-162.4436826154913, 1.9930502225864914, 22.403643799352995, 158.92274327721904, 49.07047488057166, 62.63587998152807 
-163.36085251581764, 1.8499104592341966, 22.403667552581865, 158.22005526243197, 48.99925537303052, 62.63667869881171 
-164.2788129038713, 1.7123475354672668, 22.403688715994903, 157.51769192374576, 48.93090232178361, 62.6374455747678 
-165.19754257435756, 1.5804014670660482, 22.403707481951557, 156.8156366748587, 48.86542458611803, 62.63818046831856 
-166.11701885221268, 1.4541107850341652, 22.403724036871203, 156.11387331246578, 48.80283065193038, 62.63888324501849 
-167.03721763872497, 1.3335125071885296, 22.40373856093829, 155.41238599788753, 48.74312863082455, 62.63955377698494 
-167.9581134598413, 1.218642110439774, 22.40375122781798, 154.71115923892106, 48.686326259226234, 62.64019194283106 
-168.87967951662344, 1.109533503834049, 22.403762204382446, 154.0101778718996, 48.63243089751684, 62.64079762760045 
-169.80188773781222, 1.0062190024257562, 22.40377165044841, 153.30942704394727, 48.58144952919066, 62.6413707227043 
-170.72470883444836, 0.9087293020495306, 22.403779718526124, 152.60889219541605, 48.53338876003782, 62.64191112586088 
-171.64811235649233, 0.8170934550580822, 22.403786553580204, 151.9085590424932, 48.48825481735604, 62.64241874103768 
-172.57206675137826, 0.7313388470905051, 22.40379229280258, 151.20841355996717, 48.44605354919405, 62.64289347839599 
-173.49653942442876, 0.651491174933642, 22.40379706539796, 150.5084419641401, 48.40679042362882, 62.643335254238636 
-174.42149680105166, 0.5775744255365592, 22.40380099238188, 149.80863069587647, 48.370470528079444, 62.64374399096009 
-175.3469043906315, 0.5096108562355016, 22.40380418639193, 149.10896640377692, 48.33709856865956, 62.64411961700018 
-176.272726852023, 0.4476209762438947, 22.40380675151209, 148.4094359274665, 48.30667886957055, 62.644462066800585 
-177.19892806054665, 0.39162352945878365, 22.403808783110623, 147.71002628098796, 48.279215372537344, 62.644771280764466 
-178.12547117638087, 0.3416354786316734, 22.40381036769164, 147.01072463628975, 48.25471163628868, 62.645047205219555 
-179.05231871423953, 0.2976719909483324, 22.40381158276059, 146.31151830679906, 48.233170836083325, 62.64528979238466 
-179.9794326142183, 0.25974642505830586, 22.403812496703726, 145.6123947310709, 48.21459576328384, 62.64549900033951 
179.09322568631165, 0.22787031959088616, 22.40381316868197, 144.91334145650404, 48.198988824978926, 62.64567479299801 
178.16569517988808, 0.20205338319035496, 22.403813648539007, 144.2143461231145, 48.186352043655795, 62.645817140085214 
177.23801521535003, 0.18230348609900288, 22.40381397672395, 143.51539644735783, 48.17668705692338, 62.645926017117965 
176.31022542357078, 0.16862665331204513, 22.403814184228587, 142.81648020599212, 48.16999511728707, 62.646001405388965 
175.3823656426671, 0.1610270593241962, 22.403814292539312, 142.11758521997209, 48.16627709197608, 62.64604329195479 
174.4544758428228, 0.15950702448302378, 22.403814313603835, 141.4186993383666, 48.165533462823284, 62.6460516696273 
173.52659605086595, 0.164067012959571, 22.403814249812605, 140.71981042229083, 48.16776432619863, 62.646026536969046 
172.5987662747402, 0.1747056323422445, 22.403814093995162, 140.02090632884475, 48.17296939299566, 62.645967898292525 
171.67102642801157, 0.1914196348549514, 22.403813829431215, 139.3219748950493, 48.181147988671704, 62.64587576366265 
170.7434162545513, 0.21420392019616696, 22.40381342987658, 138.62300392177244, 48.19229905334111, 62.64575014890353 
169.81597525353493, 0.2430515399905776, 22.403812859603878, 137.923981157636, 48.20642114192184, 62.64559107560865 
168.8887426048961, 0.27795370384050727, 22.40381207345796, 137.22489428289526, 48.22351242433445, 62.64539857115487 
167.9617570953727, 0.3188997869596834, 22.403811016925943, 136.52573089328266, 48.24357068575314, 62.64517266872001 
167.03505704527853, 0.36587733936742506, 22.403809626221847, 135.82647848380677, 48.26659332690823, 62.644913407304166 
166.10868023613307, 0.4188720966168531, 22.403807828385652, 135.1271244324982, 48.29257736443875, 62.644620831754544 
165.18266383927568, 0.47786799202648717, 22.403805541396636, 134.42765598409312, 48.321519431294654, 62.64429499279386 
164.25704434558892, 0.5428471703804864, 22.403802674300948, 133.72806023364558, 48.353415777187, 62.64393594705229 
163.33185749644952, 0.6137900030586044, 22.40379912735302, 133.02832411005923, 48.38826226908483, 62.64354375710252 
162.4071382160207, 0.6906751045533625, 22.403794792170967, 132.3284343595291, 48.42605439175742, 62.64311849149863 
161.4829205449952, 0.7734793503280509, 22.40378955190543, 131.62837752888356, 48.46678724835994, 62.6426602248178 
160.55923757589042, 0.8621778959658731, 22.403783281421866, 130.92813994881683, 48.51045556106096, 62.64216903770537 
159.63612138999304, 0.956744197557211, 22.40377584749593, 130.22770771700132, 48.55705367170952, 62.64164501692296 
158.71360299604325, 1.0571500332690784, 22.40376710902174, 129.52706668106975, 48.60657554253988, 62.64108825539938 
157.79171227074033, 1.163365526037961, 22.40375691723271, 128.8262024214557, 48.65901475691149, 62.64049885228471 
156.87047790114755, 1.2753591673246516, 22.403745115934708, 128.12510023408154, 48.71436452008177, 62.63987691300676 
155.94992732906388, 1.393097841867585, 22.40373154175118, 127.42374511288247, 48.772617660009026, 62.63922254933043 
155.03008669742493, 1.5165468533689201, 22.403716024379957, 126.72212173215371, 48.83376662818285, 62.638535879419415 
154.1109807987867, 1.645669951045862, 22.403698386861333, 126.0202144287094, 48.8978035004789, 62.63781702790011 
153.19263302593936, 1.780429356978389, 22.4036784458572, 125.31800718383941, 48.964719978035106, 62.63706612592808 
152.27506532468942, 1.920785794182889, 22.403656011940633, 124.6154836050512, 49.03450738814596, 62.63628331125617 
151.35829814884272, 2.06669851534061, 22.40363088989587, 123.91262690758235, 49.10715668517157, 62.63546872830485 
150.44235041741138, 2.218125332108666, 22.40360287902793, 123.20941989566948, 49.182658451457755, 62.63462252823408 
149.52723947406247, 2.375022644941157, 22.40357177348175, 122.5058449435584, 49.26100289826361, 62.633744869016944 
148.612981048817, 2.537345473347451, 22.403537362570265, 121.80188397623961, 49.34217986669259, 62.632835915514356 
147.69958922200257, 2.7050474865147467, 22.403499431111026, 121.09751844989297, 49.42617882862283, 62.631895839551554 
146.7870763904545, 2.8780810342221432, 22.403457759770905, 120.39272933202453, 49.51298888763296, 62.63092481999496 
145.8754532359552, 3.0563971779741057, 22.403412125418484, 119.68749708127741, 49.6025987799184, 62.6299230428306 
144.9647286958936, 3.239945722281395, 22.40336230148361, 118.98180162689857, 49.694996875194185, 62.6288907012427 
144.05490993612193, 3.4286752460188397, 22.403308058323617, 118.27562234784214, 49.79017117757888, 62.62782799569303 
143.1460023259802, 3.622533133790061, 22.403249163595817, 117.56893805148897, 49.88810932645539, 62.62673513400053 
142.23800941545323, 3.821465607230557, 22.403185382635666, 116.86172695196163, 49.988798597303045, 62.625612331420925 
141.33093291442177, 4.025417756181898, 22.403116478840225, 116.15396664801291, 50.0922259024957, 62.624459810726485 
140.4247726739613, 4.234333569671417, 22.403042214056264, 115.44563410046503, 50.198377792060775, 62.62327780228523 
139.51952666964095, 4.44815596663329, 22.402962348972586, 114.7367056091758, 50.307240454392996, 62.62206654413988 
138.61519098676914, 4.666826826308852, 22.402876643516137, 114.02715678950672, 50.41879971691741, 62.62082628208591 
137.71175980752867, 4.890287018265878, 22.40278485725113, 113.31696254826757, 50.53304104669544, 62.619557269748874 
136.80922539994256, 5.118476431978521, 22.40268674978092, 112.6060970591101, 50.64994955096749, 62.61825976866046 
135.90757810860717, 5.3513340059119, 22.402582081151948, 111.89453373734264, 50.769509977626115, 62.61693404833344 
135.00680634712742, 5.588797756057293, 22.40247061225926, 111.18224521413673, 50.891706715612365, 62.61558038633465 
134.10689659218767, 5.830804803866437, 22.402352105253062, 110.46920331009449, 51.016523795229, 62.6141990683569 
133.2078333791887, 6.077291403535482, 22.40222632394581, 109.7553790081455, 51.14394488836283, 62.612790388288246 
132.30959929938126, 6.32819296859183, 22.40209303421923, 109.04074242573911, 51.27395330860911, 62.61135464827961 
131.41217499842486, 6.583444097739187, 22.401952004430782, 108.32526278629823, 51.40653201129016, 62.60989215880966 
130.5155391763007, 6.842978599918884, 22.401803005819, 107.60890838989756, 51.541663593360084, 62.608403238747236 
129.61966858850724, 7.10672951854772, 22.40164581290724, 106.89164658312934, 51.67933029318773, 62.60688821541123 
128.72453804846634, 7.374629154895193, 22.401480203905184, 106.1734437281165, 51.81951399020889, 62.60534742462692 
127.83012043107058, 7.646609090565373, 22.401305961107685, 105.45426517063255, 51.9621962044392, 62.603781210779594 
126.93638667730052, 7.922600209051022, 22.401122871290386, 104.73407520728563, 52.107358095838464, 62.60218992686446 
126.0433057998442, 8.202532716330252, 22.400930726101517, 104.01283705172139, 52.2549804635169, 62.600573934533 
125.15084488965168, 8.486336160477899, 22.400729322449465, 103.29051279979926, 52.405043744773494, 62.598933604135716 
124.25896912335917, 8.773939450266775, 22.400518462885607, 102.56706339369266, 52.557528013956116, 62.597269314760375 
123.36764177152007, 9.06527087273556, 22.400297955981724, 101.84244858486375, 52.71241298113302, 62.595581454266544 
122.47682420758224, 9.36025810970316, 22.4000676167017, 101.11662689585918, 52.86967799056444, 62.59387041931546 
121.58647591755354, 9.658828253210682, 22.399827266766934, 100.38955558087328, 53.029302018962944, 62.59213661539522 
120.69655451030061, 9.960907819875226, 22.39957673501496, 99.66119058502053, 53.191263673530905, 62.590380456841515 
119.80701572842972, 10.266422764141048, 22.39931585775076, 98.93148650225939, 53.35554118976211, 62.58860236685297 
118.91781345970044, 10.575298490416323, 22.399044479090435, 98.20039653190456, 53.52211242899532, 62.58680277750167 
118.02889974892852, 10.887459864085274, 22.398762451296665, 97.4678724336646, 53.69095487570598, 62.58498212973838 
117.14022481033652, 11.202831221387612, 22.398469635105517, 96.73386448113757, 53.86204563452201, 62.58314087339192 
116.25173704031573, 11.521336378159214, 22.398165900044166, 95.9983214136956, 54.035361426949734, 62.58127946716339 
115.36338303056726, 11.84289863742942, 22.3978511247392, 95.26119038668655, 54.21087858779399, 62.57939837861418 
114.47510758159375, 12.167440795872663, 22.397525197214915, 94.52241691987726, 54.38857306125729, 62.577498084148274 
113.58685371651927, 12.494885149113271, 22.39718801518133, 93.78194484406181, 54.568420396701036, 62.57557906898837 
112.69856269521836, 12.825153495884598, 22.396839486311507, 93.03971624575293, 54.75039574405192, 62.573641827145735 
111.81017402874105, 13.158167141044625, 22.396479528507744, 92.29567140987396, 54.93447384883528, 62.57168686138373 
110.92162549402592, 13.493846897452451, 22.39610807015634, 91.549748760364, 55.12062904681669, 62.56971468317485 
110.03285314889793, 13.832113086711013, 22.39572505037055, 90.80188479860686, 55.30883525823204, 62.5677258126511 
109.14379134735428, 14.172885538783378, 22.39533041922135, 90.05201403959076, 55.49906598158559, 62.56572077854751 
108.25437275514616, 14.51608359049138, 22.39492413795583, 89.30006894570244, 55.69129428699455, 62.56370011813911 
107.3645283656714, 14.861626082906469, 22.394506179202708, 88.54597985805667, 55.88549280905744, 62.5616643771707 
106.47418751619765, 15.209431357644844, 22.394076527164824, 87.78967492525837, 56.081633739222745, 62.55961410977962 
105.58327790444342, 15.55941725207961, 22.393635177798334, 87.03108002949168, 56.27968881763312, 62.55754987841141 
104.69172560554928, 15.911501093484958, 22.393182138978187, 86.27011870982685, 56.47962932441932, 62.55547225372843 
