# MEX_intpoint_lon [deg], MEX_intpoint_lat [deg], MEX_intpoint_angle [deg], TGO_intpoint_lon [deg], TGO_intpoint_lat [deg], TGO_intpoint_angle [deg] 
-103.77749916747968, 20.381652790134087, 22.20561978822906, -143.44182249673156, 58.90362895955888, 62.53149194026872 
-104.68936182033711, 20.020106149725656, 22.206191223273628, -144.22765242244927, 58.67621740866347, 62.533760346381094 
-105.59954084807325, 19.659525239233403, 22.206752729652905, -145.01002946085873, 58.45036239535234, 62.53602274681107 
-106.50812479898408, 19.299998862531226, 22.20730414818871, -145.78906723254937, 58.226099086858696, 62.53827845677061 
-107.41520098516006, 18.941615170621027, 22.2078453317215, -146.56487564692085, 58.00346204026097, 62.5405267983778 
-108.32085545225252, 18.584461676731713, 22.208376145129897, -147.3375610342252, 57.78248522066482, 62.54276710084706 
-109.22517295073037, 18.22862527077143, 22.208896465335723, -148.10722627247867, 57.56320201834709, 62.54499870067165 
-110.12823690850587, 17.874192233095133, 22.20940618129459, -148.87397090943148, 57.345645264912996, 62.54722094179771 
-111.03012940481736, 17.521248247551362, 22.209905193971988, -149.63789127977918, 57.129847248515, 62.54943317579077 
-111.93093114526378, 17.169878413774708, 22.2103934163051, -150.3990806177983, 56.91583972817952, 62.551634761993384 
-112.83072143789353, 16.820167258692155, 22.210870773150294, -151.1576291655821, 56.70365394728507, 62.553825067675476 
-113.7295781702578, 16.472198747213913, 22.211337201216505, -151.91362427705042, 56.49332064623346, 62.55600346817603 
-114.62757778734492, 16.12605629208086, 22.211792648984584, -152.66715051790104, 56.2848700743535, 62.558169347037015 
-115.52479527032101, 15.781822762842925, 22.21223707661271, -153.418289761667, 56.07833200107462, 62.56032209612921 
-116.42130411600694, 15.439580493944165, 22.212670455828192, -154.1671212820376, 55.87373572640597, 62.56246111577004 
-117.31717631703047, 15.099411291892208, 22.21309276980557, -154.9137218415982, 55.67111009075483, 62.56458581483334 
-118.21248234259771, 14.761396441491517, 22.21350401303145, -155.6581657771358, 55.47048348411655, 62.56669561085162 
-119.10729111983525, 14.425616711121052, 22.21390419115618, -156.4005250816562, 55.27188385466638, 62.56878993011006 
-120.00167001565998, 14.092152357039144, 22.21429332083253, -157.14086948324987, 55.075338716782454, 62.57086820773304 
-120.89568481914085, 13.761083126699432, 22.21467142954175, -157.87926652094143, 54.880875158527424, 62.572929887762996 
-121.78939972432146, 13.43248826106352, 22.215038555407123, -158.61578161765132, 54.688519848615094, 62.574974423231566 
-122.6828773134796, 13.106446495897476, 22.215394746995386, -159.35047815039428, 54.498299042887155, 62.5770012762234 
-123.57617854080439, 12.783036062040852, 22.215740063106256, -160.08341751783377, 54.31023859032379, 62.57900991793266 
-124.46936271647843, 12.462334684638334, 22.216074572550315, -160.8146592053079, 54.124363938611026, 62.580999828712145 
-125.36248749115647, 12.144419581325858, 22.216398353915686, -161.54426084743668, 53.940700139286335, 62.58297049811515 
-126.25560884083853, 11.829367459364416, 22.21671149532366, -162.27227828841794, 53.7592718524833, 62.58492142493086 
-127.1487810521398, 11.517254511716375, 22.21701409417381, -162.9987656401124, 53.58010335129514, 62.58685211721238 
-128.04205670796483, 11.20815641206093, 22.21730625687871, -163.72377533801728, 53.40321852577575, 62.58876209229805 
-128.93548667359823, 10.902148308746561, 22.21758809858887, -164.44735819522157, 53.2286408865964, 62.5906508768267 
-129.82912008322876, 10.599304817680569, 22.217859742907997, -165.16956345443307, 53.05639356837546, 62.592518006745884 
-130.72300432692802, 10.299700014156771, 22.218121321599302, -165.8904388381643, 52.88649933269727, 62.59436302731432 
-131.61718503810934, 10.003407423625017, 22.218372974282843, -166.61003059715912, 52.71898057083627, 62.596185493097934 
-132.51170608149664, 9.710500011407074, 22.218614848124687, -167.32838355714063, 52.55385930620137, 62.597984967960336 
-133.4066095416362, 9.421050171366076, 22.21884709751807, -168.04554116395548, 52.39115719651493, 62.59976102504711 
-134.30193571198927, 9.135129713538033, 22.21906988375709, -168.7615455271883, 52.2308955357405, 62.60151324676508 
-135.19772308464565, 8.852809850736023, 22.219283374703352, -169.47643746231532, 52.07309525577234, 62.6032412247559 
-136.09400834070237, 8.574161184139689, 22.219487744446003, -170.19025653146514, 51.91777692789977, 62.6049445598645 
-136.9908263413547, 8.299253687884674, 22.21968317295552, -170.9030410828496, 51.76496076405847, 62.60662286210278 
-137.88821011974858, 8.028156692668489, 22.219869845731967, -171.61482828892696, 51.614666617880715, 62.60827575060826 
-138.78619087364814, 7.760938868391597, 22.22004795344791, -172.32565418335574, 51.46691398555564, 62.60990285359849 
-139.6847979589715, 7.497668205854658, 22.220217691586555, -173.03555369679563, 51.321722006510825, 62.61150380832083 
-140.5840588842533, 7.238411997534696, 22.220379260075735, -173.74456069160934, 51.17910946392545, 62.6130782609984 
-141.48399930609136, 6.983236817465687, 22.220532862918006, -174.45270799551662, 51.03909478508533, 62.61462586677184 
-142.38464302563807, 6.732208500250778, 22.220678707817466, -175.16002743425028, 50.901696041589574, 62.61614628963747 
-143.2860119861983, 6.485392119235867, 22.220817005803816, -175.86654986326107, 50.766930949418224, 62.61763920238227 
-144.18812627199569, 6.242851963876434, 22.220947970854066, -176.57230519851677, 50.634816868870175, 62.619104286515146 
-145.09100410817027, 6.004651516331892, 22.221071819512474, -177.27732244643852, 50.50537080438002, 62.62054123219533 
-145.99466186207135, 5.770853427323811, 22.221188770509148, -177.98162973301606, 50.37860940422226, 62.621949738158364 
-146.89911404590822, 5.541519491296704, 22.221299044377908, -178.6852543321414, 50.25454896011136, 62.62332951163889 
-147.80437332082192, 5.31671062092247, 22.2214028630738, -179.38822269319834, 50.13320540670518, 62.62468026829152 
-148.71045050244052, 5.096486820991492, 22.22150044959085, 179.90943953205502, 50.01459432101987, 62.62600173210966 
-149.61735456797874, 4.8809071617358715, 22.221592027580535, 179.20770746327685, 49.89873092176331, 62.627293635342035 
-150.52509266494204, 4.67002975163226, 22.2216778209715, 178.5065569659719, 49.78563006859441, 62.62855571840795 
-151.43367012149298, 4.463911709733924, 22.221758053590943, 177.80596462652963, 49.67530626131523, 62.629787729810985 
-152.34309045853587, 4.262609137583606, 22.221832948788318, 177.10590772783985, 49.56777363900252, 62.6309894260515 
-153.25335540357364, 4.06617709076087, 22.221902729061654, 176.40636422545685, 49.463045979085365, 62.63216057153811 
-154.1644649063865, 3.8746695501193327, 22.22196761568718, 175.7073127242844, 49.36113669637487, 62.63330093849855 
-155.0764171565812, 3.6881393927710313, 22.222027828352616, 175.00873245575463, 49.26205884205238, 62.634410306889905 
-155.98920860305375, 3.506638362876801, 22.222083584794678, 174.31060325547568, 49.16582510262175, 62.63548846430861 
-156.90283397540645, 3.33021704230322, 22.222135100441193, 173.6129055413236, 49.07244779883156, 62.636535205900294 
-157.81728630735407, 3.1589248212078602, 22.2221825880585, 172.91562029195543, 48.9819388845726, 62.63755033426979 
-158.73255696215185, 2.9928098686161237, 22.22222625740425, 172.21872902572082, 48.894309945756106, 62.63853365939155 
-159.64863566007048, 2.8319191030538233, 22.222266314886507, 171.5222137799511, 48.80957219917768, 62.63948499852053 
-160.5655105079403, 2.676298163300832, 22.222302963229165, 170.82605709060525, 48.72773649137198, 62.640404176103935 
-161.48316803078004, 2.5259913793318014, 22.222336401144485, 170.13024197225351, 48.64881329746276, 62.6412910236937 
-162.40159320552033, 2.381041743510613, 22.222366823012926, 169.4347518983795, 48.57281272001309, 62.64214537986057 
-163.3207694968269, 2.2414908821055173, 22.22239441857087, 168.73957078198302, 48.499744487879966, 62.64296709010905 
-164.2406788950208, 2.107379027192357, 22.22241937260652, 168.04468295646674, 48.429617955077624, 62.64375600679424 
-165.161301956088, 1.9787449890130704, 22.22244186466447, 167.3500731567898, 48.36244209965365, 62.64451198904024 
-166.08261784376367, 1.855626128856597, 22.222462068759313, 166.65572650087276, 48.298225522581824, 62.64523490266061 
-167.0046043736697, 1.7380583325287342, 22.222480153098598, 165.961628471239, 48.236976446675385, 62.64592462008067 
-167.927238059478, 1.6260759844770893, 22.22249627981568, 165.26776489687754, 48.17870271552428, 62.646581020262396 
-168.85049416106418, 1.519711942636105, 22.222510604712546, 164.5741219353138, 48.12341179245996, 62.647203988631425 
-169.77434673461124, 1.4189975140562463, 22.222523277013263, 163.8806860548749, 48.07111075955079, 62.64779341700681 
-170.6987686846137, 1.3239624313800364, 22.222534439128093, 163.18744401713596, 48.0218063166314, 62.6483492035335 
-171.62373181772844, 1.2346348302259276, 22.22254422642882, 162.49438285953607, 47.975504780368595, 62.64887125261741 
-172.54920689840986, 1.151041227539498, 22.222552767035435, 161.8014898781511, 47.93221208336695, 62.6493594748642 
-173.47516370626147, 1.0732065009690084, 22.222560181614515, 161.10875261061224, 47.89193377331648, 62.649813787020186 
-174.4015710950293, 1.0011538693205657, 22.2225665831896, 160.41615881915922, 47.8546750121849, 62.65023411191743 
-175.32839705315675, 0.9349048741452759, 22.222572076963704, 159.72369647381734, 47.820440575456765, 62.650620378421635 
-176.25560876581335, 0.8744793625083177, 22.2225767601544, 159.03135373568773, 47.78923485142169, 62.65097252138376 
-177.18317267830633, 0.8198954709869553, 22.222580721841428, 158.33911894034128, 47.76106184051345, 62.65129048159525 
-178.11105456077576, 0.771169610941278, 22.22258404282727, 157.6469805813059, 47.73592515470205, 62.651574205746684 
-179.03921957407195, 0.7283164550984547, 22.222586795510768, 156.9549272936382, 47.71382801694011, 62.65182364639055 
-179.9676323367062, 0.6913489254875962, 22.222589043773933, 156.26294783756944, 47.694773260665315, 62.652038761907576 
179.10374300723598, 0.6602781827589028, 22.22259084288214, 155.57103108221767, 47.67876332936007, 62.65221951647716 
178.17494271933515, 0.6351136169169427, 22.222592239397837, 154.87916598935652, 47.66580027616968, 62.65236588005159 
177.24600339735113, 0.6158628394941402, 22.2225932711079, 154.18734159723223, 47.655885763579974, 62.65247782833443 
176.31696190513108, 0.6025316771864438, 22.22259396696463, 153.49554700441996, 47.649021063155224, 62.6525553427629 
175.3878553020365, 0.5951241669691832, 22.222594347040648, 152.80377135371165, 47.6452070553371, 62.65259841049445 
174.45872077201693, 0.5936425527069509, 22.222594422497544, 152.1120038160263, 47.64444422930517, 62.65260702439738 
173.5295955524571, 0.5980872832670696, 22.222594195568504, 151.42023357433476, 47.646732682899234, 62.65258118304556 
172.60051686292718, 0.6084570121419983, 22.222593659554843, 150.72844980759078, 47.65207212260378, 62.65252089071758 
171.67152183396578, 0.6247485985818073, 22.2225927988364, 150.03664167465993, 47.66046186359462, 62.6524261573996 
170.74264743602384, 0.6469571102334414, 22.222591588895938, 149.34479829823817, 47.67190082984747, 62.65229699879287 
169.81393040869935, 0.6750758272793121, 22.22258999635736, 148.65290874875208, 47.68638755430834, 62.65213343632504 
168.88540719038915, 0.7090962480635333, 22.22258797903778, 147.9609620282317, 47.70392017912514, 62.65193549716577 
167.95711384848397, 0.7490080961898212, 22.222585486013333, 147.26894705414858, 47.72449645593994, 62.65170321424617 
167.02908601023015, 0.7947993290711468, 22.222582457698714, 146.57685264320963, 47.74811374624131, 62.651436626282816 
166.10135879437865, 0.8464561479070066, 22.222578825940168, 145.88466749509874, 47.77476902177545, 62.65113577780512 
165.17396674373853, 0.9039630090603687, 22.222574514122066, 145.19238017615677, 47.80445886501532, 62.65080071918709 
164.24694375874944, 0.9673026368025993, 22.222569437286673, 144.49997910299177, 47.837179469686404, 62.650431506682814 
163.320323032182, 1.0364560373907727, 22.222563502267086, 143.80745252600946, 47.87292664134766, 62.65002820246572 
162.394136985072, 1.111402514438628, 22.222556607833177, 143.11478851285503, 47.91169579802616, 62.64959087467164 
161.4684172039883, 1.1921196855386873, 22.222548644850264, 142.42197493175652, 47.9534819709037, 62.64911959744536 
160.54319437972987, 1.2785835000902088, 22.22253949645034, 141.72899943475983, 47.99827980505332, 62.648614450991076 
159.61849824754117, 1.3707682582844356, 22.222529038215654, 141.03584944084497, 48.046083560223934, 62.64807552162564 
158.69435752892983, 1.4686466311959594, 22.222517138374407, 140.34251211891345, 48.0968871116706, 62.647502901835765 
157.77079987516458, 1.572189681926357, 22.22250365800815, 139.64897437063527, 48.15068395102825, 62.64689669033808 
156.84785181252397, 1.681366887743986, 22.222488451270962, 138.95522281314493, 48.20746718722633, 62.64625699214234 
155.92553868936167, 1.7961461631614912, 22.22247136561964, 138.26124376157387, 48.26722954744135, 62.64558391861756 
155.00388462504597, 1.9164938838910237, 22.22245224205503, 137.56702321140804, 48.3299633780851, 62.64487758756102 
154.08291246082578, 2.0423749116149845, 22.222430915373902, 136.87254682065748, 48.395660645824734, 62.64413812326978 
153.16264371266703, 2.1737526195091337, 22.22240721443115, 136.1777998918248, 48.464312938632375, 62.643365656614876 
152.24309852609863, 2.3105889184534196, 22.22238096241198, 135.48276735365914, 48.535911466860114, 62.642560325117586 
151.32429563309833, 2.4528442838648297, 22.222351977113604, 134.7874337426811, 48.610447064337514, 62.64172227302831 
150.40625231104363, 2.6004777830861046, 22.22232007123625, 134.091783184464, 48.687910189487575, 62.64085165140688 
149.48898434374547, 2.75344710326325, 22.22228505268297, 133.39579937465612, 48.76829092645756, 62.639948618205196 
148.5725059845757, 2.911708579644781, 22.22224672486787, 132.69946555972734, 48.85157898626049, 62.6390133383512 
147.65682992169425, 3.0752172242353106, 22.222204887032373, 132.00276451742408, 48.93776370792333, 62.638045983834466 
146.7419672453736, 3.2439267547363277, 22.222159334569124, 131.3056785369142, 49.026834059637395, 62.63704673379298 
145.82792741741395, 3.4177896237073404, 22.22210985935302, 130.60818939860425, 49.11877863990656, 62.6360157746009 
144.9147182426362, 3.5967570478809296, 22.22205625007907, 129.91027835360953, 49.21358567868858, 62.63495329995744 
144.00234584243333, 3.7807790375661563, 22.221998292606443, 129.21192610285703, 49.31124303852463, 62.63385951097611 
143.09081463035682, 3.9698044260754783, 22.221935770308434, 128.51311277580055, 49.41173821565211, 62.632734616274625 
142.1801272897094, 4.163780899111494, 22.2218684644278, 127.81381790872594, 49.51505834109545, 62.63157883206497 
141.27028475310982, 4.362655024050889, 22.221796154436976, 127.11402042262391, 49.62119018172955, 62.63039238224347 
140.3612861839922, 4.566372279064574, 22.221718618402754, 126.41369860060634, 49.73012014131033, 62.629175498480805 
139.45312895999777, 4.774877082014094, 22.221635633354882, 125.71283006484163, 49.84183426146642, 62.627928420311356 
138.54580865821316, 4.988112819066443, 22.22154697565815, 125.01139175298252, 49.956318222646324, 62.626651395222126 
137.6393190422063, 5.2060218729707355, 22.22145242138744, 124.30935989405951, 50.07355734501466, 62.62534467874086 
136.73365205080765, 5.4285456509423335, 22.221351746705242, 123.60670998381163, 50.19353658929108, 62.624008534522744 
135.82879778858214, 5.655624612101739, 22.22124472824119, 122.90341675942433, 50.31624055752546, 62.62264323443628 
134.9247445179348, 5.887198294417617, 22.221131143472995, 122.19945417364413, 50.44165349380239, 62.62124905864719 
134.02147865279062, 6.123205341105451, 22.221010771108414, 121.49479536823674, 50.56975928486793, 62.61982629570075 
133.11898475378908, 6.363583526435279, 22.220883391467687, 120.78941264675568, 50.70054146067138, 62.6183752426021 
132.21724552493043, 6.6082697809043855, 22.220748786865894, 120.08327744658513, 50.83398319481453, 62.616896204894424 
131.3162418116121, 6.857200215732706, 22.2206067419948, 119.37636031022045, 50.97006730490052, 62.6153894967345 
130.41595259999096, 7.110310146641309, 22.22045704430364, 118.66863085574735, 51.10877625277432, 62.61385544096565 
129.51635501760978, 7.367534116876165, 22.22029948437837, 117.9600577464795, 51.25009214464652, 62.612294369187936 
128.61742433522252, 7.628805919442122, 22.220133856318814, 117.25060865971207, 51.39399673109158, 62.61070662182479 
127.71913396975772, 7.8940586185138, 22.219959958113336, 116.54025025454712, 51.5404714069119, 62.60909254818688 
126.82145548835688, 8.163224569992778, 22.219777592010416, 115.82894813874455, 51.68949721085811, 62.607452506532 
125.92435861342739, 8.436235441182538, 22.21958656488665, 115.11666683455041, 51.841054825196295, 62.605786864121114 
125.02781122865069, 8.713022229554708, 22.21938668861079, 114.4033697434522, 51.99512457511186, 62.60409599727069 
124.13177938588736, 8.993515280582699, 22.219177780403253, 113.68901910980833, 52.15168642793999, 62.60238029140062 
123.23622731292407, 9.277644304620646, 22.218959663190567, 112.97357598329685, 52.31071999221173, 62.6006401410776 
122.3411174220081, 9.565338392808012, 22.21873216595449, 112.25700018012586, 52.472204516504775, 62.598875950054094 
121.4464103191186, 9.856526031982034, 22.218495124075073, 111.5392502429455, 52.636118888087026, 62.59708813130224 
120.55206481392618, 10.151135118582626, 22.21824837966741, 110.82028339939907, 52.802441631341296, 62.59527710704289 
119.65803793039515, 10.449092971535887, 22.217991781911504, 110.10005551924748, 52.97115090595831, 62.59344330876915 
118.76428491798613, 10.750326344104925, 22.217725187374928, 109.37852106999874, 53.14222450488505, 62.59158717726469 
117.87075926342004, 11.054761434698111, 22.217448460327716, 108.65563307097125, 53.31563985201477, 62.58970916261634 
116.97741270296848, 11.362323896627101, 22.217161473049117, 107.93134304571629, 53.49137399960472, 62.58780972422084 
116.08419523523813, 11.672938846808803, 22.216864106125847, 107.20560097272175, 53.6694036254065, 62.58588933078568 
115.19105513442238, 11.986530873406963, 22.21655624874138, 106.47835523431644, 53.84970502949375, 62.58394846032377 
114.29793896399633, 12.303024042411339, 22.21623779895586, 105.74955256368968, 54.032254130771136, 62.58198760014157 
113.40479159083615, 12.622341903153533, 22.21590866397634, 105.0191379899387, 54.217026463147626, 62.58000724682115 
112.51155619974826, 12.94440749276084, 22.215568760416893, 104.28705478105107, 54.40399717135647, 62.57800790619514 
111.6181743083985, 13.269143339550556, 22.215218014548313, 103.55324438472672, 54.59314100640362, 62.5759900933153 
110.72458578263617, 13.596471465369367, 22.214856362536967, 102.81764636693946, 54.784432320625015, 62.573954332413926 
109.83072885221297, 13.92631338688346, 22.21448375067261, 102.08019834813376, 54.97784506233284, 62.57190115685815 
108.93654012690222, 14.258590115827086, 22.214100135584626, 101.34083593694893, 55.17335277002927, 62.56983110909736 
108.04195461302818, 14.5932221582185, 22.21370548444668, 100.59949266135702, 55.37092856616568, 62.5677447406029 
107.14690573042267, 14.930129512553801, 22.213299775169258, 99.8560998970983, 55.57054515042413, 62.565642611800804 
106.25132532982917, 15.269231666991018, 22.212882996579822, 99.11058679329126, 55.77217479249633, 62.5635252919966 
105.35514371078304, 15.610447595537721, 22.212455148590543, 98.36288019509149, 55.97578932433474, 62.56139335929272 
104.45828964000046, 15.953695753257758, 22.212016242353116, 97.61290456326718, 56.18136013184873, 62.55924740049829 
