# MEX_intpoint_lon [deg], MEX_intpoint_lat [deg], MEX_intpoint_angle [deg], TGO_intpoint_lon [deg], TGO_intpoint_lat [deg], TGO_intpoint_angle [deg] 
-104.85084969858411, 20.6281369327761, 22.850324402165167, 178.93976051290443, 58.74757808456824, 62.53710014856834 
-105.74294978083182, 20.23322009184244, 22.850974528684258, 178.16260459275807, 58.51568887741591, 62.539420528298514 
-106.63333988471558, 19.83945578724569, 22.851612484576695, 177.3888212711549, 58.285407000553725, 62.54173462273205 
-107.52212244151885, 19.446936397043835, 22.852238090089116, 176.61829722671393, 58.05676737087231, 62.54404173167536 
-108.40939822148893, 19.055753613984304, 22.85285118020554, 175.85092292164066, 57.829804309770054, 62.546341162171714 
-109.29526631495295, 18.665998468551305, 22.853451604666866, 175.08659246312152, 57.60455156107718, 62.54863222869556 
-110.179824114548, 18.277761350997565, 22.85403922797253, 174.32520347038022, 57.381042307925824, 62.55091425333798 
-111.0631672984202, 17.89113203232881, 22.854613929364483, 173.56665694716744, 57.159309188619666, 62.553186565983985 
-111.94538981426025, 17.506199684211012, 22.855175602793384, 172.81085715946088, 56.93938431155374, 62.55544850448113 
-112.82658386405207, 17.123052897772663, 22.85572415686737, 172.0577115181598, 56.72129926923232, 62.557699414799785 
-113.70683988942281, 16.741779701275906, 22.856259514783222, 171.3071304665641, 56.50508515143033, 62.55993865118491 
-114.58624655749169, 16.36246757663234, 22.85678161424023, 170.55902737243574, 56.29077255754119, 62.56216557629922 
-115.46489074712524, 15.98520347474066, 22.85729040733696, 169.81331842444607, 56.078391608152074, 62.564379561358244 
-116.34285753551603, 15.610073829624831, 22.857785860450843, 169.06992253282027, 55.86797195588492, 62.566579986256485 
-117.22023018501032, 15.23716457135312, 22.858267954101116, 168.3287612339966, 55.65954279553993, 62.56876623968573 
-118.09709013011975, 14.866561137719362, 22.85873668279503, 167.58975859912482, 55.45313287357639, 62.570937719244746 
-118.97351696466004, 14.498348484669473, 22.85919205485776, 166.85284114623505, 55.2487704969636, 62.57309383154071 
-119.84958842896813, 14.132611095457095, 22.859634092246182, 166.11793775591488, 55.046483541433176, 62.575233992282826 
-120.72538039715705, 13.769432988514044, 22.86006283034677, 165.38497959033833, 54.846299459162495, 62.5773576263673 
-121.60096686437603, 13.408897724021827, 22.860478317758005, 164.6539000154972, 54.64824528591744, 62.57946416795473 
-122.47641993404955, 13.051088409172358, 22.86088061605746, 163.92463452649127, 54.45234764768117, 62.58155306053958 
-123.3518098050785, 12.696087702106684, 22.861269799554023, 163.19712067573948, 54.258632766794506, 62.58362375701145 
-124.22720475899088, 12.343977814522303, 22.861645955025526, 162.4712980039797, 54.067126467631994, 62.58567571970918 
-125.10267114703944, 11.994840512940364, 22.86200918144219, 161.74710797393107, 53.877854181836874, 62.58770842046701 
-125.97827337724719, 11.648757118625996, 22.862359589676203, 161.0244939064973, 53.69084095313682, 62.589721340653504 
-126.85407390141071, 11.305808506155842, 22.86269730219789, 160.3034009193953, 53.506111441761426, 62.59171397120309 
-127.73013320207647, 10.966075100628514, 22.863022452758894, 159.58377586809723, 53.32368992848127, 62.59368581264035 
-128.60650977951033, 10.629636873515244, 22.8633351860627, 158.86556728898088, 53.14360031828778, 62.59563637509767 
-129.48326013868916, 10.296573337149246, 22.863635657423107, 158.14872534458533, 52.96586614373192, 62.597565178325524 
-130.36043877634575, 9.966963537854369, 22.86392403241093, 157.43320177087557, 52.790510567939116, 62.59947175169646 
-131.2380981681068, 9.640886047714625, 22.86420048648956, 156.71894982642266, 52.617556387317, 62.601355634202505 
-132.1162887557669, 9.31841895498878, 22.864465204639764, 156.00592424341008, 52.44702603397186, 62.60321637444611 
-132.99505893474765, 8.999639853175188, 22.864718380974253, 155.29408118038185, 52.278941577848975, 62.6050535306251 
-133.87445504179604, 8.68462582873463, 22.864960218342606, 154.58337817665057, 52.11332472861129, 62.60686667051151 
-134.75452134298004, 8.3734534474806, 22.865190927926932, 153.8737741082878, 51.95019683727076, 62.608655371424916 
-135.63530002204476, 8.066198739648609, 22.86541072882892, 153.16522914562222, 51.789578897585066, 62.610419220199894 
-136.51683116919682, 7.762937183658297, 22.86561984764882, 152.45770471217477, 51.63149154723326, 62.61215781314831 
-137.39915277038733, 7.463743688584643, 22.865818518056784, 151.75116344496277, 51.47595506878218, 62.613870756016496 
-138.28230069716898, 7.168692575356479, 22.866006980357344, 151.04556915610812, 51.322989390455774, 62.6155576639373 
-139.1663086972065, 6.877857556703331, 22.866185481047427, 150.34088679568734, 51.172614086718504, 62.61721816137771 
-140.05120838552037, 6.591311715874128, 22.866354272368536, 149.6370824157646, 51.02484837868405, 62.61885188208165 
-140.9370292365505, 6.309127484153653, 22.866513611853726, 148.93412313555078, 50.879711134359674, 62.620458469008746 
-141.82379857712516, 6.031376617205659, 22.86666376186996, 148.23197710763435, 50.73722086873651, 62.62203757426911 
-142.71154158042592, 5.758130170274094, 22.866804989156403, 147.53061348523283, 50.59739574373564, 62.62358885905397 
-143.6002812610388, 5.489458472276812, 22.8669375643593, 146.83000239041507, 50.46025356801941, 62.625111993563166 
-144.49003847118547, 5.225431098828854, 22.86706176156408, 146.13011488324685, 50.325811796676945, 62.6266066569289 
-145.3808318982272, 4.96611684423566, 22.86717785782518, 145.4309229318154, 50.19408753079302, 62.62807253713671 
-146.27267806353677, 4.711583692499092, 22.867286132694403, 144.73239938308933, 50.06509751690856, 62.62950933094342 
-147.16559132283342, 4.461898787382366, 22.867386867748216, 144.03451793457273, 49.93885814638108, 62.63091674379241 
-148.05958386807487, 4.217128401583094, 22.867480346114785, 143.33725310671412, 49.81538545465304, 62.6322944897267 
-148.95466573100114, 3.977337905066256, 22.867566852001282, 142.64058021603293, 49.69469512043585, 62.633642291299644 
-149.85084478842245, 3.742591732612346, 22.867646670222037, 141.94447534892737, 49.57680246481695, 62.634959879484 
-150.74812676934374, 3.5129533506385195, 22.867720085728326, 141.24891533612927, 49.461722450297046, 62.636246993579064 
-151.64651526401403, 3.2884852233537574, 22.867787383140236, 140.5538777277735, 49.34946967976488, 62.63750338111663 
-152.54601173498858, 3.0692487783117186, 22.867848846281312, 139.85934076905008, 49.24005839541567, 62.63872879776548 
-153.446615530287, 2.8553043714278625, 22.86790475771659, 139.1652833764097, 49.133502477620425, 62.6399230072354 
-154.3483238987279, 2.646711251530133, 22.86795539829459, 138.47168511429356, 49.029815443751964, 62.64108578117986 
-155.25113200751636, 2.443527524514886, 22.868001046693962, 137.77852617236059, 48.92901044697395, 62.64221689909886 
-156.15503296215616, 2.245810117182538, 22.868041978975224, 137.08578734318533, 48.83110027499886, 62.64331614824095 
-157.06001782875273, 2.0536147408294476, 22.868078468138382, 136.39345000040245, 48.7360973488207, 62.644383323505906 
-157.9660756587689, 1.86699585467488, 22.868110783686824, 135.70149607727322, 48.644013721427825, 62.64541822734688 
-158.87319351628736, 1.6860066292038283, 22.868139191198235, 135.0099080456519, 48.554861076501254, 62.64642066967369 
-159.7813565078299, 1.510698909508295, 22.86816395190292, 134.31866889532944, 48.46865072710394, 62.647390467756296 
-160.69054781477357, 1.341123178711239, 22.868185322270296, 133.62776211373438, 48.38539361436546, 62.6483274461293 
-161.6007487283988, 1.177328521558763, 22.868203553603912, 132.93717166597096, 48.30510030616753, 62.64923143649781 
-162.51193868759606, 1.0193625882672153, 22.868218891645622, 132.24688197517503, 48.227780995834536, 62.65010227764412 
-163.4240953192487, 0.8672715587127936, 22.86823157618951, 131.55687790316992, 48.15344550083374, 62.65093981533632 
-164.33719448130276, 0.7211001070517931, 22.86824184070583, 130.86714473140484, 48.08210326148959, 62.65174390223847 
-165.25121030852353, 0.5808913668600796, 22.86824991197585, 130.17766814215898, 48.01376333971595, 62.652514397822586 
-166.16611526093214, 0.4466868968801993, 22.86825600973757, 129.48843419999565, 47.94843441777061, 62.65325116828289 
-167.08188017490374, 0.3185266474644915, 22.868260346343387, 128.7994293334508, 47.88612479703555, 62.653954086452266 
-167.99847431690114, 0.1964489278017214, 22.868263126429547, 128.11064031694175, 47.82684239682677, 62.654623031721165 
-168.91586543980722, 0.08049037401417154, 22.86826454659836, 127.42205425288178, 47.77059475323716, 62.65525788995915 
-169.83401984180998, -0.029314081789487193, 22.86826479511319, 126.73365855398727, 47.717389018015744, 62.65585855343928 
-170.75290242778476, -0.1329312414214686, 22.868264051606886, 126.04544092576454, 47.66723195748628, 62.65642492076535 
-171.67247677310775, -0.2303296694003183, 22.868262486803932, 125.35738934916373, 47.62012995150844, 62.65695689680235 
-172.5927051898258, -0.3214797205346092, 22.868260262256644, 124.66949206338816, 47.57608899248429, 62.65745439261012 
-173.5135487950988, -0.40635356622780316, 22.868257530095963, 123.98173754884748, 47.53511468441264, 62.65791732538029 
-174.43496758181922, -0.4849252194296573, 22.868254432796814, 123.29411451024339, 47.49721224199408, 62.65834561837708 
-175.35692049130787, -0.5571705581632254, 22.86825110295881, 122.60661185977773, 47.46238648978851, 62.65873920088116 
-176.27936548797317, -0.6230673475595966, 22.868247663102178, 121.91921870047209, 47.430641861427986, 62.659098008138 
-177.20225963581467, -0.6825952603366413, 22.868244225479405, 121.23192430958936, 47.40198239888633, 62.65942198130931 
-178.1255591766429, -0.735735895661844, 22.868240891902794, 120.54471812214717, 47.37641175180778, 62.65971106742908 
-179.04921960988094, -0.7824727963439774, 22.868237753588165, 119.85758971451432, 47.353933176896, 62.65996521936325 
-179.97319577380466, -0.8227914643026182, 22.868234891014893, 119.17052878808028, 47.334549537365355, 62.66018439577378 
179.10255807192547, -0.8566793742697241, 22.868232373802503, 118.48352515298977, 47.31826330245547, 62.6603685610867 
178.17808816259597, -0.8841259856822935, 22.86823026060395, 117.7965687119328, 47.305076547010465, 62.66051768546455 
177.25344114379448, -0.905122752730454, 22.86822859901577, 117.10964944398208, 47.29499095112388, 62.66063174478318 
176.32866398594928, -0.9196631325308493, 22.868227425505143, 116.42275738846931, 47.288007799850085, 62.66071072061283 
175.4038038982224, -0.9277425914005887, 22.868226765354073, 115.73588262889203, 47.28412798298295, 62.6607546002036 
174.47890824192558, -0.9293586092128627, 22.868226632620672, 115.0490152768426, 47.28335199490224, 62.660763376475565 
173.55402444363207, -0.9245106818210053, 22.868227030117637, 114.3621454559515, 47.285679934488165, 62.66073704801295 
172.62919990815772, -0.9132003215436872, 22.868227949407956, 113.67526328583673, 47.29111150510434, 62.660675619063184 
171.7044819315854, -0.8954310557097261, 22.868229370817787, 112.98835886605102, 47.299646014648985, 62.66057909954025 
170.77991761450753, -0.8712084232669763, 22.868231263466647, 112.30142226001898, 47.31128237567453, 62.660447505032394 
169.85555377565896, -0.8405399694655216, 22.868233585314616, 111.61444347895629, 47.32601910557514, 62.660280856814545 
168.93143686611228, -0.8034352386312815, 22.86823628322678, 110.92741246576193, 47.34385432684173, 62.66007918186486 
168.00761288420398, -0.7599057650518495, 22.868239293054604, 110.24031907887634, 47.36478576738391, 62.65984251288584 
167.08412729135705, -0.709965062001993, 22.86824253973426, 109.5531530760962, 47.38881076091801, 62.659570888329775 
166.16102492896135, -0.6536286089417421, 22.868245937401678, 108.86590409833761, 47.41592624742035, 62.65926435242852 
165.23834993646855, -0.5909138369254492, 22.868249389524287, 108.17856165333949, 47.44612877364447, 62.65892295522732 
164.31614567085327, -0.5218401122650698, 22.86825278904913, 107.49111509929749, 47.47941449370114, 62.65854675262303 
163.39445462758474, -0.4464287184963351, 22.86825601856729, 106.80355362842023, 47.515779169699776, 62.65813580640628 
162.47331836324895, -0.3647028367007103, 22.86825895049434, 106.1158662503978, 47.55521817244949, 62.65769018430777 
161.55277741995164, -0.2766875242409403, 22.868261447266512, 105.4280417757738, 47.59772648221815, 62.657209960048284 
160.6328712516264, -0.18240969197195073, 22.868263361552504, 104.74006879921029, 47.643298689547414, 62.65669521339271 
159.71363815236353, -0.08189807999294103, 22.868264536480442, 104.05193568263603, 47.69192899612171, 62.65614603020764 
158.79511518686678, 0.024816767989827123, 22.868264805879868, 103.36363053826739, 47.74361121568893, 62.65556250252256 
157.8773381231363, 0.13770253161682355, 22.868263994538232, 102.67514121149081, 47.79833877503027, 62.65494472859463 
156.96034136746675, 0.256725142069622, 22.868261918471845, 101.98645526359608, 47.85610471497675, 62.65429281297648 
156.04415790184086, 0.3818488114274103, 22.86825838521057, 101.29755995434812, 47.91690169146971, 62.65360686658756 
155.12881922378804, 0.5130360631045365, 22.868253194096187, 100.60844222438554, 47.98072197666224, 62.652887006788205 
154.2143552887694, 0.6502477632861713, 22.86824613659386, 99.91908867743322, 48.04755746005856, 62.65213335745676 
153.30079445513957, 0.7934431532771762, 22.868236996616307, 99.2294855623156, 48.1173996496881, 62.65134604906941 
152.38816343172672, 0.942579882678176, 22.868225550860355, 98.53961875475716, 48.19023967331086, 62.65052521878243 
151.47648722806264, 1.0976140433014332, 22.868211569155264, 97.84947373895558, 48.2660682796505, 62.64967101051693 
150.56578910728425, 1.258500203738598, 22.86819481482253, 97.15903558891286, 48.34487583965148, 62.648783575045705 
149.6560905417204, 1.4251914444919502, 22.868175045046534, 96.46828894950856, 48.42665234775625, 62.64786307008222 
148.74741117116585, 1.5976393935804938, 22.868152011255706, 95.77721801729902, 48.51138742319864, 62.646909660371264 
147.8397687638385, 1.7757942625326149, 22.868125459513482, 95.08580652102559, 48.599070311308864, 62.64592351778124 
146.9331791800048, 1.9596048826773067, 22.86809513091885, 94.3940377018139, 48.68968988482615, 62.644904821397986 
146.02765633825123, 2.1490187416469215, 22.86806076201559, 93.70189429304571, 48.78323464521429, 62.64385375761965 
145.12321218437168, 2.3439820200051296, 22.86802208520998, 93.00935849988392, 48.8796927239752, 62.642770520252625 
144.21985666283186, 2.54443962791532, 22.867978829196247, 92.3164119784302, 48.97905188395577, 62.641655310608314 
143.31759769076703, 2.7503352417659004, 22.8679307193892, 91.62303581449419, 49.08129952064298, 62.64050833760035 
142.4164411344597, 2.961611340670883, 22.867877478363578, 90.92921050195184, 49.18642266344177, 62.63932981784221 
141.5163907882401, 3.1782092427658233, 22.867818826299423, 90.2349159206698, 49.29440797693043, 62.63811997574497 
140.617448355745, 3.400069141221484, 22.867754481433003, 89.54013131397106, 49.40524176208791, 62.636879043614854 
139.719613433466, 3.627130139899623, 22.867684160512496, 88.84483526561692, 49.51890995748685, 62.635607261750536 
138.82288349651276, 3.859330288577957, 22.867607579258127, 88.14900567627798, 49.63539814044687, 62.634304878539666 
137.92725388651326, 4.096606617673651, 22.867524452825858, 87.45261973946674, 49.75469152814139, 62.632972150554885 
137.0327178015687, 4.338895172397424, 22.867434496274218, 86.75565391690225, 49.876774978651945, 62.63160934264851 
136.13926628817765, 4.586131046273232, 22.86733742503355, 86.05808391327606, 50.001632991962964, 62.63021672804597 
135.24688823504107, 4.838248413961028, 22.86723295537716, 85.359884650388, 50.12924971089051, 62.62879458843777 
134.35557036865796, 5.09518056332327, 22.8671208048936, 84.66103024061748, 50.2596089219377, 62.627343214069725 
133.46529725061936, 5.356859926678596, 22.86700069295962, 83.96149395969599, 50.39269405606943, 62.625862903831006 
132.57605127650635, 5.6232181111891935, 22.866872341213064, 83.26124821874338, 50.52848818939897, 62.624353965340006 
131.68781267629885, 5.894185928331214, 22.866735474025116, 82.56026453552994, 50.66697404377847, 62.62281671502775 
130.8005595161992, 6.169693422400769, 22.866589818971306, 81.85851350492376, 50.808133987285416, 62.62125147821854 
129.91426770177654, 6.44966989801086, 22.866435107300592, 81.15596476848143, 50.95195003459643, 62.61965858920753 
129.0289109823373, 6.734043946537748, 22.866271074401965, 80.4525869831377, 51.09840384724, 62.61803839133513 
128.14446095642865, 7.022743471477904, 22.866097460267955, 79.74834778894841, 51.24747673371901, 62.61639123705818 
127.26088707838288, 7.315695712679979, 22.86591400995435, 79.04321377583798, 51.39914964949363, 62.61471748801688 
126.37815666581206, 7.612827269418823, 22.865720474035605, 78.3371504493009, 51.55340319681538, 62.613017515098356 
125.49623490796523, 7.914064122281253, 22.865516609055376, 77.63012219500487, 51.71021762440179, 62.61129169849594 
124.61508487486142, 8.219331653836452, 22.865302177971472, 76.92209224223937, 51.86957282694177, 62.609540427763676 
123.7346675271164, 8.528554668065977, 22.86507695059464, 76.21302262615258, 52.03144834442056, 62.60776410186684 
122.85494172638174, 8.841657408531445, 22.864840704020818, 75.50287414871526, 52.19582336125338, 62.605963129227135 
121.9758642463205, 9.158563575259976, 22.864593223055948, 74.79160633834879, 52.36267670521591, 62.60413792776309 
121.09738978404569, 9.479196340330361, 22.864334300633125, 74.07917740815044, 52.53198684615964, 62.60228892492524 
120.21947097195252, 9.803478362144835, 22.864063738221205, 73.36554421264692, 52.70373189449949, 62.60041655772562 
119.34205838987886, 10.13133179837388, 22.863781346224656, 72.65066220300284, 52.877889599460545, 62.59852127276183 
118.46510057753369, 10.462678317563428, 22.863486944373843, 71.93448538060882, 53.0544373470703, 62.59660352623513 
117.58854404713692, 10.797439109395922, 22.863180362105435, 71.21696624896914, 53.23335215788208, 62.594663783962496 
116.71233329621919, 11.135534893598932, 22.86286143893226, 70.49805576380594, 53.414610684415024, 62.59270252138246 
115.8364108205356, 11.476885927496307, 22.862530024802222, 69.77770328129286, 53.598189208294606, 62.59072022355457 
114.9607171270518, 11.821412012199406, 22.862185980445823, 69.05585650432715, 53.784063637078056, 62.58871738515203 
114.08519074696741, 12.169032497436957, 22.86182917771167, 68.33246142674514, 53.97220950074729, 62.586694510447956 
113.20976824874582, 12.51966628502431, 22.861459499889698, 67.60746227538138, 54.16260194785177, 62.58465211329433 
112.33438425112699, 12.873231830973888, 22.861076842021568, 66.88080144986765, 54.3552157412826, 62.582590717094156 
111.45897143610436, 13.229647146250764, 22.860681111197795, 66.15241946006303, 54.55002525365857, 62.58051085476622 
110.58346056185397, 13.588829796178024, 22.860272226841342, 65.42225486100159, 54.747004462303394, 62.578413068702545 
109.70778047561036, 13.950696898498492, 22.859850120977068, 64.69024418523898, 54.946126943793054, 62.576297910718324 
108.83185812648946, 14.315165120100682, 22.859414738486898, 63.95632187247399, 55.147365868050535, 62.5741659419942 
107.95561857826696, 14.682150672417718, 22.858966037350203, 63.22042019631614, 55.35069399196428, 62.57201773301091 
107.07898502212564, 15.05156930550979, 22.858503988869064, 62.48246918806391, 55.5560836525058, 62.569853863475956 
106.20187878939457, 15.423336300841571, 22.858028577878176, 61.742396557353494, 55.76350675931991, 62.56767492224225 
105.32421936430833, 15.797366462767457, 22.85753980293905, 61.00012760953067, 55.972934786760604, 62.565481507219054 
