# MEX_intpoint_lon [deg], MEX_intpoint_lat [deg], MEX_intpoint_angle [deg], TGO_intpoint_lon [deg], TGO_intpoint_lat [deg], TGO_intpoint_angle [deg] 
-103.88466157779149, 20.4071516821765, 22.26761915837857, -146.68375248500678, 59.00469329921288, 62.53008509395517 
-104.79468396039135, 20.04231037538243, 22.26819812741053, -147.47513827276342, 58.780217429449635, 62.53231981051804 
-105.70301811297601, 19.678452481683387, 22.26876695971264, -148.26302280555402, 58.55726499814034, 62.534548699236815 
-106.60975395360597, 19.315667209486772, 22.269325494127084, -149.0475197424085, 58.33587131900861, 62.536771085316985 
-107.51498012438778, 18.954043109923564, 22.269873581767023, -149.82873908481753, 58.11607108708101, 62.53898630065973 
-108.41878396212357, 18.593668092706995, 22.270411086036173, -150.6067873042479, 57.8978983969794, 62.54119368404987 
-109.32125147042858, 18.234629441311206, 22.27093788263347, -151.38176746487903, 57.68138676018924, 62.543392581335986 
-110.2224672931925, 17.877013827432027, 22.27145385954312, -152.15377934172335, 57.4665691213531, 62.545582345602696 
-111.12251468927015, 17.520907324694164, 22.271958917009776, -152.92291953429012, 57.25347787363648, 62.54776233733532 
-112.02147550829383, 17.166395421571746, 22.27245296749915, -153.68928157595195, 57.04214487321034, 62.54993192457639 
-112.91943016750851, 16.813563033490617, 22.272935935644025, -154.45295603917003, 56.83260145289315, 62.552090483074394 
-113.81645762953742, 16.462494514083403, 22.27340775817581, -155.21403063673182, 56.62487843499272, 62.554237396424895 
-114.7126353809942, 16.113273665569853, 22.273868383841847, -155.97259031915146, 56.41900614338611, 62.556372056203585 
-115.60803941186495, 15.76598374823683, 22.274317773308447, -156.72871736838005, 56.215014414874425, 62.55849386209167 
-116.50274419558963, 15.420707488994415, 22.27475589904996, -157.48249148796882, 56.012932609847, 62.560602221993385 
-117.39682266978078, 15.077527088985656, 22.275182745224015, -158.2339898898253, 55.81278962228842, 62.56269655214607 
-118.29034621752324, 14.736524230229897, 22.2755983075331, -158.98328737769734, 55.61461388915948, 62.56477627722236 
-119.18338464920575, 14.397780081280438, 22.276002593072715, -159.73045642751737, 55.41843339918218, 62.5668408304248 
-120.07600618484142, 14.061375301879535, 22.276395620166326, -160.4755672647335, 55.22427570105764, 62.56888965357313 
-120.96827743684116, 13.727390046594794, 22.276777418187333, -161.21868793875197, 55.03216791114354, 62.57092219718386 
-121.8602633932091, 13.39590396742281, 22.277148027368373, -161.95988439460908, 54.84213672061742, 62.57293792054284 
-122.7520274011367, 13.066996215347238, 22.277507498598176, -162.69922054198912, 54.654208402150374, 62.57493629177021 
-123.64363115097618, 12.740745440840296, 22.277855893206276, -163.4367583216984, 54.46840881611477, 62.57691678787854 
-124.53513466058158, 12.417229793297691, 22.278193282735874, -164.17255776970373, 54.28476341634821, 62.5788788948236 
-125.42659626000956, 12.096526919399128, 22.27851974870523, -164.90667707883807, 54.10329725549554, 62.58082210754862 
-126.31807257657891, 11.77871396038763, 22.27883538235777, -165.63917265827305, 53.92403498994905, 62.582745930021254 
-127.20961852029167, 11.46386754826257, 22.279140284401485, -166.3700991908547, 53.747000884406546, 62.58464987526426 
-128.1012872696247, 11.152063800883173, 22.27943456473772, -167.09950968839397, 53.57221881606594, 62.58653346537952 
-128.99313025770545, 10.843378315980459, 22.279718342179912, -167.82745554500144, 53.39971227847434, 62.588396231565675 
-129.88519715888933, 10.537886164077648, 22.279991744162558, -168.55398658855069, 53.229504385048465, 62.59023771412953 
-130.77753587576223, 10.235661880320453, 22.280254906440923, -169.27915113035317, 53.06161787228296, 62.5920574624914 
-131.67019252659466, 9.936779455220732, 22.280507972781695, -170.0029960131223, 52.89607510266232, 62.59385503518442 
-132.5632114332791, 9.641312324318356, 22.28075109464524, -170.72556665730337, 52.73289806729113, 62.5956299998483 
-133.45663510978568, 9.349333356768538, 22.28098443085969, -171.44690710584075, 52.57210838825737, 62.59738193321741 
-134.35050425117518, 9.060914842863212, 22.28120814728743, -172.16706006745287, 52.41372732074235, 62.59911042110342 
-135.24485772321222, 8.776128480497354, 22.28142241648435, -172.88606695848117, 52.257775754890694, 62.60081505837287 
-136.13973255262437, 8.495045360592911, 22.28162741735236, -173.60396794337774, 52.104274217452904, 62.60249544891942 
-137.03516391805647, 8.2177359514953, 22.281823334785635, -174.32080197389206, 51.95324287321294, 62.604151205631666 
-137.93118514177195, 7.94427008235913, 22.282010359310995, -175.036606827017, 51.804701526212575, 62.60578195035603 
-138.8278276821563, 7.674716925542234, 22.28218868672301, -175.75141914174952, 51.658669620783506, 62.60738731385523 
-139.72512112707955, 7.409144978029296, 22.28235851771423, -176.46527445472097, 51.515166242398706, 62.60896693576263 
-140.6230931881771, 7.147622041908186, 22.282520057501024, -177.1782072347484, 51.374210118352956, 62.610520464532534 
-141.52176969611003, 6.890215203924811, 22.282673515445598, -177.8902509163568, 51.235819618282875, 62.61204755738653 
-142.42117459686756, 6.636990814144294, 22.28281910467464, -178.60143793232004, 51.10001275453645, 62.6135478802564 
-143.3213299491761, 6.388014463748627, 22.282957041695074, -179.31179974526614, 50.96680718240092, 62.615021107723436 
-144.22225592307953, 6.143350962003278, 22.2830875460075, 179.97863312160953, 50.83622020019861, 62.616466922954764 
-145.12397079975645, 5.903064312427576, 22.283210839717803, 179.2698310546812, 50.708268749259176, 62.617885017636574 
-146.02649097264057, 5.667217688206046, 22.28332714714736, 178.56176532083936, 50.582969413776794, 62.619275091904626 
-146.92983094991052, 5.43587340687999, 22.283436694442557, 177.85440803920878, 50.4603384205605, 62.62063685427231 
-147.83400335841418, 5.209092904361297, 22.283539709183884, 177.14773215360145, 50.34039163868552, 62.62197002155627 
-148.73901894909318, 4.986936708312327, 22.28363641999536, 176.4417114056684, 50.2231445790532, 62.6232743188 
-149.64488660397123, 4.769464410938336, 22.283727056154657, 175.7363203087174, 50.10861239386708, 62.62454947919556 
-150.55161334476907, 4.556734641240849, 22.2838118472044, 175.03153412216358, 49.996809876031904, 62.62579524400367 
-151.45920434320624, 4.348805036782788, 22.28389102256538, 174.3273288265823, 49.88775145848294, 62.62701136247249 
-152.36766293304922, 4.14573221501804, 22.28396481115192, 173.6236810993345, 49.781451213451746, 62.628197591754784 
-153.27699062396152, 3.9475717442403297, 22.284033440990104, 172.92056829073616, 49.67792285167532, 62.62935369682471 
-154.18718711720842, 3.7543781142082353, 22.284097138839225, 172.2179684007444, 49.57717972155447, 62.63047945039322 
-155.09825032326742, 3.56620470650481, 22.284156129817095, 171.5158600561349, 49.47923480826778, 62.63157463282342 
-156.01017638139, 3.383103764692216, 22.284210637029595, 170.81422248814428, 49.38410073284672, 62.632639032045205 
-156.92295968115693, 3.205126364323416, 22.28426088120501, 170.1130355105554, 49.291789751217614, 62.63367244347002 
-157.83659288606552, 3.032322382874193, 22.28430708033362, 169.412279498201, 49.202313753216124, 62.63467466990553 
-158.75106695918174, 2.8647404696604437, 22.284349449313016, 168.71193536586486, 49.115684261579126, 62.635645521470735 
-159.66637119088594, 2.702428015806528, 22.284388199599654, 168.01198454755885, 49.03191243091937, 62.636584815511355 
-160.58249322873473, 2.545431124331784, 22.28442353886702, 167.3124089761561, 48.95100904668765, 62.637492376516164 
-161.49941910945677, 2.3937945804229646, 22.284455670670983, 166.61319106336077, 48.87298452412727, 62.638368036033945 
-162.41713329309368, 2.2475618219610256, 22.284484794122594, 165.91431367999633, 48.79784890722527, 62.63921163259176 
-163.3356186992919, 2.106774910371204, 22.284511103569013, 165.21576013659413, 48.72561186766501, 62.64002301161427 
-164.2548567457443, 1.9714745018654893, 22.284534788282752, 164.5175141642655, 48.65628270378385, 62.640802025344634 
-165.1748273887741, 1.841699819146763, 22.28455603215979, 163.81955989584125, 48.58987033954064, 62.64154853276702 
-166.09550916604724, 1.7174886236434976, 22.284575013426885, 163.12188184726276, 48.52638332349614, 62.64226239953082 
-167.01687924139168, 1.5988771883436275, 22.284591904358525, 162.42446489920968, 48.46582982781077, 62.64294349787696 
-167.93891345169652, 1.4859002712955236, 22.284606871003867, 161.72729427894967, 48.408217647262674, 62.64359170656621 
-168.8615863558552, 1.3785910898431593, 22.284620072923992, 161.0303555423967, 48.35355419828983, 62.64420691080995 
-169.78487128571143, 1.2769812956612503, 22.284631662939933, 160.33363455636436, 48.30184651805932, 62.644789002203055 
-170.70874039895864, 1.1811009506550931, 22.28464178689166, 159.63711748100118, 48.253101263566826, 62.64533787865989 
-171.63316473393698, 1.0909785037879345, 22.284650583408467, 158.940790752396, 48.207324710769136, 62.64585344435231 
-172.55811426626514, 1.0066407688970074, 22.284658183690965, 158.24464106534117, 48.16452275375267, 62.646335609651324 
-173.48355796723712, 0.9281129035572971, 22.284664711305112, 157.5486553562423, 48.1247009039403, 62.64678429107093 
-174.40946386390806, 0.8554183890497432, 22.284670281988387, 156.85282078616325, 48.08786428933915, 62.64719941121576 
-175.335799100786, 0.7885790114880264, 22.284675003468486, 156.15712472399582, 48.05401765383148, 62.64758089873144 
-176.26253000304087, 0.7276148441554368, 22.28467897529469, 155.46155472974365, 48.023165356510766, 62.64792868825845 
-177.1896221411361, 0.6725442311002119, 22.28468228868224, 154.76609853791, 47.99531137106501, 62.64824272038943 
-178.11704039678227, 0.6233837720346911, 22.28468502636984, 154.07074404098032, 47.970459285209046, 62.648522941629935 
-179.04474903010674, 0.5801483085801862, 22.284687262490447, 153.37547927298874, 47.9486123001674, 62.64876930436274 
-179.97271174792965, 0.5428509118960212, 22.28468906245569, 152.6802923931609, 47.92977323020919, 62.64898176681588 
179.09910822696972, 0.5115028717273256, 22.284690482853833, 151.98517166962228, 47.913944502236575, 62.649160293034384 
178.1707480857146, 0.4861136869025644, 22.2846915713616, 151.29010546316428, 47.90112815542751, 62.64930485285574 
177.24224536244347, 0.46669105730753707, 22.28469236666993, 150.5950822110587, 47.89132584093426, 62.649415421889344 
176.31363786279945, 0.4532408773586931, 22.284692898423724, 149.9000904109123, 47.884538821638095, 62.64949198149954 
175.3849635919245, 0.44576723099424914, 22.284693187175723, 149.20511860455255, 47.88076797196126, 62.649534518793 
174.456260682089, 0.444272388197429, 22.28469324435446, 148.5101553619364, 47.88001377773624, 62.649543026609585 
173.52756732008874, 0.44875680306168453, 22.284693072246547, 147.81518926507383, 47.88227633613317, 62.649517503517565 
172.5989216745414, 0.45921911340347854, 22.284692663993063, 147.12020889195725, 47.887555355645276, 62.64945795381247 
171.67036182321726, 0.4756561419236862, 22.284692003600263, 146.4252028004892, 47.8958501561325, 62.64936438752021 
170.74192568053536, 0.4980628989143342, 22.28469106596445, 145.73015951239938, 47.907159668923136, 62.64923682040386 
169.8136509253593, 0.5264325865029409, 22.284689816911058, 145.03506749714316, 47.92148243697333, 62.64907527397469 
168.88557492922286, 0.5607566044223508, 22.28468821324783, 144.3399151557726, 47.938816615083766, 62.64887977550698 
167.95773468511496, 0.6010245572896539, 22.284686202832123, 143.64469080477213, 47.9591599701732, 62.64865035805659 
167.03016673695154, 0.6472242633735296, 22.2846837246521, 142.94938265984996, 47.98250988160792, 62.64838706048375 
166.102907109858, 0.69934176482519, 22.28468070892188, 142.25397881967635, 48.00886334158627, 62.64808992747923 
165.17599124138331, 0.7573613393440706, 22.284677077190302, 141.5584672495603, 48.03821695557718, 62.647759009594694 
164.24945391376332, 0.8212655132454343, 22.28467274246343, 140.8628357650553, 48.07056694281137, 62.64739436327631 
163.32332918734528, 0.8910350758934119, 22.28466760934036, 140.1670720154853, 48.105909136824, 62.64699605090239 
162.3976503352825, 0.9666490954591798, 22.284661574162314, 139.47116346738065, 48.14423898604718, 62.64656414082434 
161.47244977960187, 1.0480849359607305, 22.284654525174865, 138.7750973878157, 48.18555155445034, 62.646098707411056 
160.54775902874198, 1.1353182755373006, 22.284646342702807, 138.07886082763648, 48.22984152222708, 62.64559983109686 
159.6236086166534, 1.2283231259084741, 22.284636899337887, 137.38244060456952, 48.27710318652612, 62.64506759843241 
158.7000280435478, 1.327071852965139, 22.28462606013862, 136.68582328620064, 48.327330462224246, 62.644502102139164 
157.77704571837424, 1.4315351984368427, 22.284613682842405, 135.98899517281274, 48.38051688273899, 62.643903441166444 
156.85468890309653, 1.5416823025775603, 22.28459961808934, 135.29194228007148, 48.4366556008784, 62.64327172075183 
155.93298365883766, 1.6574807278098875, 22.28458370965752, 134.5946503215473, 48.49573938972543, 62.64260705248391 
155.01195479395054, 1.7788964832655207, 22.28456579470967, 133.8971046910613, 48.55776064355386, 62.6419095543681 
154.09162581406764, 1.9058940501582575, 22.284545704050448, 133.19929044484252, 48.62271137877316, 62.64117935089479 
153.1720188741752, 2.03843640792423, 22.284523262394472, 132.50119228348382, 48.6905832348986, 62.6404165731097 
152.2531547327499, 2.1764850610629543, 22.2844982886444, 131.80279453368223, 48.76136747554393, 62.639621358686675 
151.3350527079901, 2.320000066611555, 22.284470596178785, 131.10408112975037, 48.83505498943271, 62.63879385200249 
150.41773063616554, 2.4689400621839637, 22.284439993149526, 130.40503559488343, 48.91163629142481, 62.63793420421347 
149.50120483210313, 2.6232622945062407, 22.28440628278812, 129.70564102216716, 48.99110152355433, 62.63704257333375 
148.58549005181968, 2.7829226483789737, 22.284369263720706, 129.00588005531014, 49.07344045607495, 62.63611912431523 
147.67059945730594, 2.947875675997461, 22.284328730291236, 128.3057348690845, 49.15864248850867, 62.635164029128866 
146.75654458345917, 3.1180746265606682, 22.284284472892452, 127.6051871494571, 49.246696650693366, 62.63417746684696 
145.8433353071562, 3.2934714761003394, 22.284236278304178, 126.90421807339337, 49.337591603825175, 62.63315962372661 
144.9309798184522, 3.474016957461923, 22.284183930038513, 126.20280828831498, 49.431315641490606, 62.63211069329393 
144.01948459388475, 3.659660590370089, 22.28412720869147, 125.50093789119141, 49.52785669068396, 62.63103087642871 
143.10885437185848, 3.8503507115122555, 22.28406589230058, 124.79858640724515, 49.62720231280472, 62.62992038144959 
142.19909213007767, 4.046034504574736, 22.28399975670798, 124.09573276824872, 49.729339704630064, 62.628779424199436 
141.29019906499312, 4.246658030167432, 22.283928575928535, 123.39235529039178, 49.834255699256985, 62.627608228130555 
140.3821745732215, 4.452166255574334, 22.283852122522465, 122.68843165169373, 49.94193676700844, 62.62640702438983 
139.47501623489396, 4.6625030842686375, 22.28377016797203, 121.98393886893898, 50.05236901629799, 62.625176051903274 
138.56871979888464, 4.877611385133049, 22.28368248306176, 121.27885327410785, 50.16553819444674, 62.62391555746007 
137.66327916986896, 5.097433021327502, 22.283588838261736, 120.57315049027748, 50.281429688446764, 62.62262579579559 
136.75868639715566, 5.321908878748534, 22.283489004113303, 119.8668054069647, 50.40002852566422, 62.621307029673254 
135.85493166523574, 5.550978894026549, 22.28338275161698, 119.1597921548814, 50.521319374476235, 62.619959529965435 
134.95200328598884, 5.784582082009074, 22.28326985262169, 118.45208408007264, 50.64528654483408, 62.61858357573237 
134.04988769248442, 6.022656562680568, 22.283150080215155, 117.74365371740573, 50.77191398874617, 62.617179454299645 
133.1485694343158, 6.265139587471189, 22.283023209114642, 117.03447276337681, 50.9011853006733, 62.61574746133357 
132.24803117440072, 6.511967564909498, 22.282889016057734, 116.32451204820075, 51.03308371782885, 62.614287900914256 
131.34825368718512, 6.763076085576043, 22.28274728019254, 115.61374150714832, 51.16759212037598, 62.61280108560654 
130.44921585818216, 7.01839994631733, 22.28259778346687, 114.90213015109296, 51.304693031513935, 62.61128733652805 
129.55089468478178, 7.277873173681761, 22.282440311015716, 114.18964603622761, 51.44436861744515, 62.60974698341452 
128.65326527826426, 7.541429046541784, 22.282274651546768, 113.47625623291088, 51.586600687214435, 62.60818036468183 
127.75630086695259, 7.809000117868321, 22.282100597723268, 112.76192679359959, 51.73137069241145, 62.60658782748514 
126.85997280043891, 8.080518235626412, 22.28191794654374, 112.04662271982303, 51.87865972672715, 62.6049697277742 
125.96425055482177, 8.35591456276299, 22.281726499718125, 111.3303079281522, 52.028448525354676, 62.603326430344936 
125.06910173889192, 8.635119596259893, 22.281526064039788, 110.61294521511536, 52.18071746422475, 62.60165830888733 
124.17449210120671, 8.918063185227894, 22.281316451752932, 109.8944962210092, 52.33544655906531, 62.59996574602896 
123.28038553799476, 9.20467454801926, 22.281097480914934, 109.17492139255242, 52.49261546427455, 62.598249133374395 
122.38674410183454, 9.494882288338951, 22.280868975753044, 108.45417994432647, 52.65220347159655, 62.59650887153975 
121.4935280110543, 9.788614410336312, 22.28063076701511, 107.73222981894598, 52.81418950858757, 62.594745370182785 
120.60069565980157, 10.085798332661753, 22.280382692313715, 107.00902764589821, 52.978552136861396, 62.592959048028 
119.708203628736, 10.38636090147427, 22.280124596463377, 106.28452869898943, 53.145269550101006, 62.59115033288655 
118.81600669629975, 10.690228402388394, 22.279856331810343, 105.55868685233217, 53.31431957182364, 62.58931966167081 
117.9240578505258, 10.997326571350559, 22.279577758554417, 104.83145453480562, 53.48567965288577, 62.587467480403625 
117.03230830134638, 11.307580604437057, 22.279288745062637, 104.10278268291789, 53.65932686871384, 62.58559424422176 
116.1407074933682, 11.620915166567636, 22.27898916817404, 103.37262069199616, 53.83523791624614, 62.58370041737353 
115.2492031190857, 11.937254399130417, 22.27867891349547, 102.64091636562759, 54.013389110570344, 62.58178647321047 
114.35774113250697, 12.256521926515859, 22.278357875687707, 101.9076158632707, 54.19375638124092, 62.57985289417287 
113.46626576317219, 12.578640861558835, 22.27802595874182, 101.17266364595369, 54.37631526825941, 62.5779001717689 
112.5747195305485, 12.903533809890137, 22.277683076245044, 100.43600241997254, 54.56104091770049, 62.57592880654739 
111.68304325879059, 13.231122873199643, 22.277329151636092, 99.6975730784988, 54.74790807696504, 62.57393930806391 
110.7911760918605, 13.561329651415805, 22.27696411844949, 98.95731464100247, 54.93689108964175, 62.57193219484023 
109.8990555090063, 13.894075243806922, 22.27658792054846, 98.21516419039278, 55.1279638899566, 62.56990799431677 
109.00661734060355, 14.22928024901182, 22.276200512346144, 97.47105680777516, 55.321099996789805, 62.56786724279824 
108.11379578436951, 14.56686476400881, 22.275801859014905, 96.72492550471877, 55.516272507237986, 62.56581048539203 
107.22052342196592, 14.906748382033259, 22.275391936683256, 95.97670115292587, 55.71345408969876, 62.56373827593956 
106.32673123601094, 15.248850189455965, 22.274970732620268, 95.22631241118913, 55.91261697645335, 62.56165117694011 
105.43234862752828, 15.593088761635515, 22.274538245407143, 94.47368564952023, 56.113732955722384, 62.55954975946744 
104.537303433866, 15.939382157759985, 22.27409448509567, 93.71874487032768, 56.31677336316788, 62.557434603078875 
