# MEX_intpoint_lon [deg], MEX_intpoint_lat [deg], MEX_intpoint_angle [deg], TGO_intpoint_lon [deg], TGO_intpoint_lat [deg], TGO_intpoint_angle [deg] 
-103.94103802684789, 20.420504751511615, 22.300463669193736, -148.46870518456842, 59.0475644840493, 62.529519900249426 
-104.85008017606505, 20.053925550530995, 22.30104663275421, -149.26246269536918, 58.82435416242374, 62.53174015351666 
-105.7574318329695, 19.688339157864597, 22.301619348694533, -150.05269907862174, 58.60265304013641, 62.53395465429937 
-106.66318363871893, 19.323834990854543, 22.30218165480817, -150.8395279726602, 58.38249649053857, 62.53616273209546 
-107.56742493734261, 18.960501807339842, 22.302733401293985, -151.62305938290274, 58.16391926484442, 62.53836372300943 
-108.47024374687726, 18.598427721918593, 22.303274450775923, -152.40339980736067, 57.94695551045758, 62.540556969939146 
-109.37172673195778, 18.237700221512203, 22.3038046783075, -153.18065235752147, 57.73163878828012, 62.54274182275519 
-110.27195917773747, 17.878406180193956, 22.304323971361484, -153.9549168747568, 57.518002089052665, 62.544917638472334 
-111.17102496502186, 17.520631873246554, 22.30483222980464, -154.72629004240554, 57.30607784877199, 62.547083781413235 
-112.0690065465072, 17.16446299041566, 22.305329365857677, -155.4948654936803, 57.09589796323012, 62.54923962336454 
-112.96598492402387, 16.809984648328083, 22.305815304040475, -156.26073391554615, 56.88749380171672, 62.55138454372509 
-113.86203962669171, 16.457281402045794, 22.306289981102694, -157.02398314871516, 56.680896219924776, 62.55351792964645 
-114.75724868990228, 16.10643725572855, 22.306753345939935, -157.78469828390084, 56.476135572097505, 62.5556391761659 
-115.65168863505093, 15.757535672379591, 22.307205359495505, -158.54296175447183, 56.27324172245256, 62.55774768633131 
-116.54543444994799, 15.410659582650945, 22.307645994648144, -159.29885342564117, 56.07224405591808, 62.55984287131895 
-117.43855956984619, 15.065891392686305, 22.308075236085607, -160.05245068032562, 55.87317148821306, 62.56192415054306 
-118.33113585902808, 14.723312990981253, 22.308493080164542, -160.80382850180354, 55.67605247530369, 62.563990951758576 
-119.22323359290397, 14.383005754241902, 22.308899534756822, -161.55305955329902, 55.48091502226474, 62.56604271115564 
-120.11492144057763, 14.045050552225014, 22.30929461908242, -162.30021425461382, 55.287786691574894, 62.56807887344719 
-121.00626644784342, 13.70952775154372, 22.309678363529283, -163.04536085592653, 55.09669461087265, 62.570098891949186 
-121.89733402058417, 13.376517218424894, 22.310050809460318, -163.7885655088741, 54.90766548019858, 62.57210222865321 
-122.78818790854692, 13.046098320405367, 22.310412009007813, -164.52989233502672, 54.720725578748485, 62.57408835429235 
-123.67889018947707, 12.718349926956023, 22.31076202485561, -165.26940349186447, 54.53590077116077, 62.5760567483997 
-124.56950125359974, 12.393350409024004, 22.311100930009257, -166.00715923635858, 54.35321651336049, 62.57800689936018 
-125.46007978844096, 12.071177637485022, 22.311428807554602, -166.74321798625883, 54.17269785798119, 62.57993830445521 
-126.35068276398766, 11.751908980499257, 22.311745750404974, -167.47763637918274, 53.99436945938506, 62.581850469900914 
-127.24136541819075, 11.43562129976564, 22.312051861037492, -168.21046932960067, 53.8182555783007, 62.583742910879664 
-128.13218124281977, 11.122390945671448, 22.312347251218718, -168.94177008380572, 53.6443800860972, 62.58561515156512 
-129.02318196968415, 10.812293751335112, 22.31263204172007, -169.67159027295568, 53.4727664687123, 62.587466725141056 
-129.9144175572391, 10.505405025542407, 22.312906362023497, -170.39997996426948, 53.30343783025153, 62.58929717381395 
-130.80593617760013, 10.201799544577415, 22.313170350017558, -171.1269877104583, 53.13641689627475, 62.5911060488195 
-131.69778420399405, 9.901551542951802, 22.31342415168465, -171.85266059746863, 52.97172601678578, 62.5928929104236 
-132.59000619867842, 9.604734703037382, 22.313667920779437, -172.57704429061022, 52.80938716893966, 62.59465732791716 
-133.48264490136583, 9.311422143609118, 22.31390181849929, -173.30018307914096, 52.64942195948248, 62.596398879605864 
-134.37574121819287, 9.021686407307438, 22.314126013146836, -174.02211991937585, 52.49185162693714, 62.598117152794266 
-135.2693342112778, 8.735599447030602, 22.314340679785342, -174.742896476386, 52.336697043548284, 62.5998117437649 
-136.16346108891355, 8.453232611270074, 22.31454599988718, -175.4625531643507, 52.18397871699923, 62.60148225775244 
-137.0581571964469, 8.174656628403774, 22.314742160976042, -176.1811291856222, 52.033716791913115, 62.6031283089129 
-137.95345600789616, 7.899941589964252, 22.314929356263164, -176.8986625685613, 51.885931051149896, 62.60474952028844 
-138.84938911836468, 7.6291569329007025, 22.315107784278254, -177.61519020419968, 51.74064091691043, 62.606345523767615 
-139.74598623730722, 7.362371420856492, 22.31527764849544, -178.33074788178132, 51.5978654516587, 62.607915960041524 
-140.64327518271077, 7.099653124485403, 22.31543915695484, -179.04537032323495, 51.45762335887248, 62.60946047855599 
-141.54128187625182, 6.841069400832653, 22.315592521880284, -179.7590912166258, 51.319932983632725, 62.610978737459845 
-142.44003033949434, 6.58668687180867, 22.31573795929352, 179.52805675136636, 51.1848123130611, 62.61247040354968 
-143.3395426911941, 6.336571401786123, 22.315875688625624, 178.81604186389714, 51.05227897661537, 62.613935152211305 
-144.2398391457756, 6.090788074352893, 22.31600593232596, 178.10483334329345, 50.92235024625142, 62.615372667357974 
-145.14093801304884, 5.849401168256232, 22.316128915469402, 177.39440132123335, 50.79504303646092, 62.61678264136555 
-146.04285569923354, 5.612474132575534, 22.316244865362066, 176.68471680973047, 50.67037390419274, 62.618164775005255 
-146.94560670935826, 5.3800695611634675, 22.316354011146295, 175.97575167288457, 50.548359048666605, 62.61951877737349 
-147.84920365110165, 5.152249166397902, 22.31645658340541, 175.267478599363, 50.42901431108658, 62.62084436581995 
-148.75365724014245, 4.929073752288857, 22.316552813768556, 174.55987107557672, 50.312355174262215, 62.62214126587281 
-149.6589763070837, 4.710603186987527, 22.316642934516413, 173.85290335951908, 50.19839676214456, 62.62340921116291 
-150.56516780601495, 4.496896374746264, 22.316727178188092, 173.14655045523355, 50.08715383928423, 62.62464794334584 
-151.47223682477508, 4.288011227380959, 22.316805777189863, 172.44078808788174, 49.97864081021836, 62.62585721202256 
-152.3801865969758, 4.084004635289057, 22.316878963406193, 171.73559267938077, 49.87287171879319, 62.627036774659075 
-153.28901851584283, 3.88493243807878, 22.31694696781355, 171.03094132458247, 49.76986024742857, 62.628186396504844 
-154.19873214993004, 3.6908493948670795, 22.317010020097577, 170.32681176796794, 49.669619716330715, 62.62930585051066 
-155.10932526075723, 3.5018091543054175, 22.317068348274123, 169.62318238083037, 49.57216308265915, 62.630394917245766 
-156.02079382241996, 3.3178642243947647, 22.31712217831454, 168.92003213892298, 49.477502939653824, 62.631453384814655 
-156.93313204321348, 3.1390659421523845, 22.31717173377583, 168.217340600547, 49.385651515727574, 62.632481048773805 
-157.84633238931187, 2.9654644431947386, 22.31721723543618, 167.51508788505794, 49.29662067353005, 62.63347771204836 
-158.76038561053483, 2.7971086313021796, 22.317258900936203, 166.8132546517678, 49.2104219089876, 62.63444318484919 
-159.67528076823322, 2.634046148032182, 22.31729694442646, 166.1118220792229, 49.12706635032475, 62.63537728459019 
-160.59100526531583, 2.4763233424491653, 22.317331576221836, 165.41077184483652, 49.04656475707182, 62.636279835806604 
-161.50754487843636, 2.323985241039468, 22.31736300246295, 164.71008610485842, 48.96892751906341, 62.637150670073716 
-162.4248837923528, 2.17707551788112, 22.317391424785324, 164.00974747466174, 48.8941646554326, 62.63798962592709 
-163.34300463646505, 2.035636465138119, 22.317417039996585, 163.30973900933014, 48.82228581360462, 62.63879654878347 
-164.2618885235307, 1.8997089639494145, 22.317440039762236, 162.61004418452848, 48.75330026829479, 62.63957129086373 
-165.18151509055144, 1.7693324557829362, 22.31746061030027, 161.91064687764057, 48.68721692051433, 62.640313711116775 
-166.10186254181679, 1.6445449143244997, 22.317478932085148, 161.21153134915815, 48.62404429658813, 62.641023675145576 
-167.0229076940837, 1.5253828179712932, 22.317495179561575, 160.51268222430713, 48.563790547188006, 62.64170105513506 
-167.94462602386494, 1.4118811229989319, 22.317509520868242, 159.8140844748954, 48.50646344638508, 62.642345729781916 
-168.86699171679024, 1.3040732374700896, 22.317522117572125, 159.11572340136948, 48.45207039072459, 62.642957584226835 
-169.78997771899898, 1.2019909959516937, 22.317533124413657, 158.41758461506635, 48.40061839832638, 62.64353650998895 
-170.7135557905143, 1.105664635106235, 22.317542689062904, 157.71965402064743, 48.35211410801411, 62.644082404902946 
-171.6376965605426, 1.015122770221108, 22.317550951887362, 157.0219177987027, 48.30656377847595, 62.644595173058725 
-172.56236958463478, 0.9303923727381771, 22.317558045731484, 156.3243623885132, 48.263973287459685, 62.64507472474389 
-173.4875434036387, 0.8514987488433695, 22.317564095708345, 155.62697447095974, 48.22434813100468, 62.64552097638917 
-174.4131856043657, 0.7784655191740769, 22.317569219003577, 154.92974095156774, 48.18769342271311, 62.645933850516805 
-175.33926288188763, 0.7113145996993994, 22.317573524691994, 154.23264894367645, 48.15401389306272, 62.64631327569216 
-176.2657411033739, 0.6500661838254309, 22.317577113567104, 153.53568575172307, 48.12331388876324, 62.64665918647852 
-177.19258537337282, 0.5947387257749381, 22.317580077983624, 152.83883885463064, 48.095597372158416, 62.64697152339519 
-178.11976010043537, 0.5453489252874139, 22.31758250171338, 152.14209588929103, 48.070867920675255, 62.64725023287913 
-179.0472290649739, 0.5019117136821412, 22.31758445981467, 151.44544463413246, 48.04912872632239, 62.64749526725008 
-179.9749554882438, 0.46444024132332645, 22.317586018515293, 150.74887299276278, 48.03038259523877, 62.647706584679085 
179.09709789766833, 0.4329458665225661, 22.317587235109364, 150.05236897767935, 48.01463194729418, 62.64788414916089 
178.16896877897156, 0.4074381459099876, 22.317588157868204, 149.35592069403592, 48.001878815742494, 62.648027930490066 
177.24069518853653, 0.38792482630139286, 22.317588825965142, 148.65951632345883, 47.992124846929016, 62.64813790424051 
176.31231543362813, 0.3744118380845748, 22.317589269414636, 147.96314410790305, 47.98537130005227, 62.64821405174922 
175.3838680231355, 0.3669032901435457, 22.317589509025588, 147.26679233353934, 47.98161904698143, 62.64825636010377 
174.45539159443152, 0.3654014663353979, 22.317589556368993, 146.5704493146651, 47.98086857212939, 62.64826482213335 
173.52692483999584, 0.3699068235296565, 22.31758941375994, 145.87410337762918, 47.983119972382255, 62.64823943640401 
172.59850643393625, 0.38041799121587494, 22.317589074254055, 145.17774284476357, 47.98837295708523, 62.648180207217806 
171.6701749585443, 0.39693177268057184, 22.317588521658227, 144.48135601831237, 47.99662684808496, 62.64808714461546 
170.74196883101956, 0.4194431477501242, 22.317587730555854, 143.78493116435092, 48.007880579828225, 62.647960264383414 
169.81392623049769, 0.4479452770917614, 22.31758666634627, 143.08845649668567, 48.02213269951684, 62.64779958806435 
168.88608502551537, 0.48242950806035695, 22.317585285298698, 142.391920160727, 48.039381367317986, 62.64760514297173 
167.95848270204357, 0.5228853820743667, 22.317583534620105, 141.69531021732632, 48.05962435662988, 62.64737696220817 
167.031156292218, 0.5693006434997901, 22.317581352537545, 140.9986146265687, 48.08285905440149, 62.64711508468755 
166.10414230389307, 0.6216612500170777, 22.31757866839419, 140.30182123151238, 48.109082461505835, 62.64681955516075 
165.17747665114248, 0.6799513844414834, 22.31757540275951, 139.6049177418665, 48.13829119316548, 62.64649042424532 
164.25119458582427, 0.7441534679636205, 22.317571467553037, 138.90789171759772, 48.17048147942927, 62.64612774845853 
163.32533063032605, 0.8142481747729949, 22.317566766181834, 138.21073055245648, 48.205649165698624, 62.645731590254066 
162.39991851159942, 0.8902144480237154, 22.317561193691212, 137.51342145741373, 48.24378971330217, 62.645302018062125 
161.4749910965884, 0.9720295170979338, 22.31755463692883, 136.81595144399824, 48.284898200116736, 62.6448391063331 
160.55058032915062, 1.0596689161194597, 22.317546974721623, 136.11830730752456, 48.328969321233004, 62.644342935584206 
159.62671716856477, 1.1531065036666366, 22.317538078065553, 135.42047561020118, 48.37599738966381, 62.64381359244969 
158.70343152971103, 1.252314483630913, 22.317527810327828, 134.72244266410897, 48.425976337092784, 62.64325116973375 
157.78075222500502, 1.3572634271645885, 22.31751602746135, 134.02419451403793, 48.47889971466121, 62.64265576646672 
156.85870690815895, 1.4679222956590245, 22.31750257823113, 133.32571692017206, 48.53476069379042, 62.64202748796406 
155.93732201983747, 1.584258464692174, 22.3174873044523, 132.62699534060997, 48.593552067037116, 62.64136644588769 
155.0166227352675, 1.7062377488824685, 22.31747004123946, 131.92801491370935, 48.65526624897903, 62.640672758310714 
154.09663291385573, 1.8338244275841402, 22.31745061726705, 131.22876044024267, 48.71989527712758, 62.63994654978366 
153.1773750508588, 1.9669812713578652, 22.317428855040305, 130.52921636535137, 48.78743081286468, 62.63918795140366 
152.25887023114575, 2.105669569149055, 22.31740457117662, 129.8293667602844, 48.85786414240038, 62.63839710088561 
151.34113808508295, 2.249849156105314, 22.317377576696636, 129.1291953039078, 48.931186177747826, 62.63757414263533 
150.424196746567, 2.399478441963708, 22.317347677325063, 128.42868526397, 49.00738745771184, 62.63671922782439 
149.5080628132224, 2.554514439938042, 22.317314673800496, 127.72781947810789, 49.0864581488877, 62.63583251446686 
148.5927513087743, 2.714912796035984, 22.317278362193996, 127.02658033457784, 49.16838804666569, 62.634914167497364 
147.67827564760034, 2.8806278187358245, 22.317238534235965, 126.32494975269493, 49.2531665762378, 62.633964358850584 
146.76464760145882, 3.051612508952783, 22.317194977650917, 125.62290916296351, 49.34078279360189, 62.63298326754183 
145.85187726838342, 3.2278185902253007, 22.317147476499603, 124.92043948688023, 49.431225386559206, 62.63197107974832 
144.93997304372988, 3.4091965390520143, 22.31709581152818, 124.21752111639219, 49.524482675700504, 62.63092798889176 
144.0289415933531, 3.5956956153112247, 22.317039760523837, 123.51413389298926, 49.620542615375896, 62.62985419572096 
143.11878782888834, 3.7872638926953974, 22.316979098676477, 122.81025708641101, 49.71939279464365, 62.62874990839498 
142.20951488510408, 3.983848289094438, 22.316913598945963, 122.10586937294656, 49.82102043819265, 62.627615342566536 
141.30112409929035, 4.185394596862734, 22.31684303243444, 121.40094881330566, 49.925412407233246, 62.62645072146526 
140.39361499264066, 4.39184751290654, 22.316767168763217, 120.69547283003673, 50.03255520035101, 62.62525627598069 
139.48698525358233, 4.603150668529575, 22.31668577645375, 119.9894181844692, 50.142434954317594, 62.62403224474484 
138.58123072300526, 4.8192466589768195, 22.316598623312217, 119.28276095315309, 50.25503744485285, 62.622778874214134 
137.67634538133672, 5.040077072617901, 22.316505476817145, 118.57547650377128, 50.37034808733211, 62.62149641875026 
136.7723213374056, 5.265582519713702, 22.316406104509614, 117.86753947049552, 50.48835193743219, 62.620185140700265 
135.8691488190374, 5.495702660711763, 22.316300274385476, 117.15892372875801, 50.60903369170978, 62.61884531047493 
134.96681616531905, 5.730376234018014, 22.316187755289157, 116.44960236940877, 50.73237768810521, 62.61747720662593 
134.06530982046982, 5.969541083194805, 22.316068317308403, 115.73954767222696, 50.85836790636484, 62.61608111592106 
133.16461432925408, 6.213134183537132, 22.31594173216958, 115.02873107875403, 50.98698796837464, 62.61465733341764 
132.2647123338693, 6.461091667981613, 22.31580777363285, 114.31712316441389, 51.1182211383976, 62.61320616253347 
131.365584572243, 6.713348852304551, 22.315666217886903, 113.60469360988546, 51.252050323207214, 62.61172791511575 
130.46720987767057, 6.969840259568411, 22.315516843942504, 112.89141117168931, 51.3884580721089, 62.61022291150706 
129.56956517972688, 7.230499643777708, 22.31535943402451, 112.17724365195079, 51.52742657684135, 62.60869148060872 
128.67262550638404, 7.495260012708323, 22.315193773961727, 111.46215786729807, 51.66893767134887, 62.6071339599408 
127.77636398726848, 7.76405364987599, 22.315019653574158, 110.74611961685378, 51.81297283141603, 62.60555069569933 
126.88075185799156, 8.036812135612573, 22.314836867057117, 110.0290936492757, 51.95951317415548, 62.60394204280964 
125.98575846548812, 8.313466367220835, 22.314645213361647, 109.3110436288007, 52.10853945733911, 62.60230836497611 
125.09135127430096, 8.593946578180587, 22.314444496570815, 108.5919321002441, 52.26003207856295, 62.60065003472822 
124.19749587374817, 8.878182356381783, 22.314234526271356, 107.87172045290416, 52.413971074235256, 62.59896743346215 
123.30415598591468, 9.16610266136186, 22.314015117920135, 107.1503688833202, 52.5703361183774, 62.59726095147843 
122.41129347441067, 9.457635840527399, 22.31378609320497, 106.4278363568291, 52.72910652122625, 62.59553098801494 
121.51886835384202, 9.752709644341705, 22.313547280399405, 105.70408056786461, 52.890261227626624, 62.59377795127523 
120.6268387999409, 10.051251240462742, 22.31329851471079, 104.97905789893929, 53.05377881520193, 62.59200225845177 
119.73516116030841, 10.353187226817187, 22.31303963862142, 104.25272337824866, 53.21963749229034, 62.59020433574472 
118.84378996572298, 10.658443643599108, 22.31277050222205, 103.52503063583252, 53.38781509563381, 62.58838461837471 
117.95267794197322, 10.966945984183115, 22.312490963537552, 102.7959318582273, 53.55828908780624, 62.58654355059061 
117.06177602217724, 11.278619204944171, 22.312200888844124, 102.06537774153959, 53.731036554366796, 62.58468158567184 
116.17103335955332, 11.593387733978082, 22.311900152977667, 101.33331744286845, 53.90603420072389, 62.582799185924486 
115.28039734061323, 11.91117547871815, 22.31158863963301, 100.59969853000143, 54.08325834869413, 62.580896822671775 
114.38981359875106, 12.23190583244584, 22.311266241653364, 99.86446692930556, 54.26268493274094, 62.578974976238435 
113.49922602820754, 12.555501679694371, 22.310932861309873, 99.1275668717321, 54.444289495875466, 62.577034135928706 
112.6085767983924, 12.881885400546562, 22.310588410570666, 98.38894083684986, 54.62804718520304, 62.57507479999821 
111.71780636855392, 13.210978873829104, 22.310232811359143, 97.64852949481971, 54.81393274709652, 62.57309747561896 
110.82685350278832, 13.54270347920783, 22.30986599580113, 96.90627164621799, 55.00192052197781, 62.57110267883795 
109.93565528538804, 13.876980098189485, 22.309487906460607, 96.1621041596146, 55.19198443868752, 62.569090934529015 
109.04414713653293, 14.213729114037479, 22.309098496563482, 95.41596190680669, 55.38409800842196, 62.567062776337536 
108.15226282833315, 14.55287041061044, 22.308697730209417, 94.66777769560625, 55.57823431821576, 62.56501874661844 
107.25993450124008, 14.894323370133922, 22.308285582571123, 93.91748220007551, 55.77436602394715, 62.56295939636688 
106.36709268084506, 15.2380068699172, 22.307862040080973, 93.1650038881008, 55.972465342841936, 62.56088528514168 
105.47366629509406, 15.583839278028488, 22.307427100604656, 92.4102689461916, 56.17250404545135, 62.55879698098175 
104.57958269195088, 15.931738447943514, 22.306980773601584, 91.65320120138756, 56.37445344707696, 62.55669506031483 
