# MEX_intpoint_lon [deg], MEX_intpoint_lat [deg], MEX_intpoint_angle [deg], TGO_intpoint_lon [deg], TGO_intpoint_lat [deg], TGO_intpoint_angle [deg] 
-104.60125380238145, 20.572893232944093, 22.696007811719287, -171.95330483935558, 59.0140635530593, 62.53191165895882 
-105.49820771150638, 20.18578648274219, 22.696639041180216, -172.74509048785217, 58.789816577404096, 62.53414387360314 
-106.39345358962028, 19.79978702541849, 22.697258652123093, -173.5333714216516, 58.56709055229179, 62.536370274112706 
-107.28709062588678, 19.41498650847477, 22.6978664697152, -174.31826129755922, 58.345920798876584, 62.53859018643442 
-108.17921645201409, 19.031475899102023, 22.698462333191763, -175.09987011894134, 58.126342019058455, 62.54080294319464 
-109.06992712022847, 18.64934550532667, 22.699046095875442, -175.8783043629054, 57.90838831378075, 62.543007883886865 
-109.95931708248132, 18.26868499623306, 22.699617625178938, -176.65366710272806, 57.692093200304775, 62.54520435505185 
-110.84747917074951, 17.889583421228576, 22.700176802590562, -177.42605812569005, 57.47748962851082, 62.547391710449666 
-111.73450457829976, 17.512129228319495, 22.700723523642946, -178.19557404647674, 57.264609996272235, 62.54956931122424 
-112.62048284179706, 17.13641028136803, 22.701257697865035, -178.9623084163018, 57.05348616394724, 62.551736526059685 
-113.50550182414757, 16.76251387630259, 22.701779248717347, -179.72635182790836, 56.844149468030764, 62.553892731329285 
-114.38964769797543, 16.39052675625557, 22.702288113510658, 179.51220798339963, 56.63663073400673, 62.55603731123601 
-115.27300492964191, 16.020535125604237, 22.702784243308326, 178.75328604254778, 56.43096028843914, 62.558169657946145 
-116.1556562637251, 15.652624662892155, 22.703267602812357, 177.9968000411561, 56.22716797033821, 62.560289171714025 
-117.03768270788564, 15.286880532610112, 22.703738170233397, 177.24267024753738, 56.02528314183671, 62.56239526100008 
-117.91916351805362, 14.923387395816802, 22.704195937144906, 176.49081942008985, 55.82533469820897, 62.56448734258062 
-118.80017618387858, 14.562229419581255, 22.704640908321643, 175.74117272394994, 55.627351077264635, 62.56656484165006 
-119.68079641439388, 14.20349028523, 22.705073101562828, 174.99365765077383, 55.43136026814642, 62.568627191915745 
-120.56109812385279, 13.84725319538378, 22.705492547500153, 174.24820394152198, 55.237389819561024, 62.570673835685135 
-121.44115341770238, 13.493600879769392, 22.705899289390874, 173.5047435121232, 55.04546684746977, 62.57270422394556 
-122.3210325786674, 13.14261559979417, 22.706293382896472, 172.76321038189994, 54.8556180422653, 62.574717816436795 
-123.20080405292445, 12.79437915187141, 22.706674895846966, 172.0235406046402, 54.6678696754587, 62.57671408171625 
-124.08053443635181, 12.448972869486889, 22.707043907991384, 171.28567220220532, 54.482247605900646, 62.57869249721711 
-124.96028846084951, 12.106477623997405, 22.707400510734615, 170.54954510056695, 54.29877728555917, 62.58065254929939 
-125.8401289807274, 11.766973824154308, 22.707744806861086, 169.81510106817026, 54.11748376487504, 62.58259373329413 
-126.72011695916818, 11.430541414345932, 22.708076910245637, 169.08228365652434, 53.93839169771574, 62.584515553540804 
-127.60031145477623, 11.097259871554389, 22.70839694555194, 168.35103814292398, 53.76152534594711, 62.586417523418 
-128.48076960823002, 10.767208201024037, 22.708705047918883, 167.62131147521208, 53.58690858364161, 62.58829916536779 
-129.36154662906154, 10.440464930639902, 22.70900136263544, 166.8930522184925, 53.41456490094084, 62.59016001091344 
-130.24269578259037, 10.117108104016697, 22.709286044804312, 166.1662105037108, 53.244517407589605, 62.59199960067114 
-131.12426837704788, 9.797215272300004, 22.70955925899488, 165.4407379780189, 53.076788836157654, 62.59381748435543 
-132.00631375092868, 9.480863484683711, 22.709821178885953, 164.71658775684725, 52.91140154496499, 62.5956132207792 
-132.88887926061494, 9.168129277648937, 22.710071986898733, 163.9937143776079, 52.74837752072539, 62.597386377847144 
-133.77201026832068, 8.859088662932129, 22.71031187382055, 163.272073754957, 52.58773838092298, 62.59913653254451 
-134.65575013041015, 8.553817114231695, 22.71054103841972, 162.5516231375467, 52.429505375935314, 62.60086327091998 
-135.54014018614677, 8.252389552664704, 22.710759687052306, 161.8323210662007, 52.27369939091629, 62.602566188063264 
-136.42521974693466, 7.954880330987249, 22.71096803326103, 161.11412733344864, 52.120340947451695, 62.60424488807816 
-137.31102608611695, 7.661363216594474, 22.71116629736703, 160.39700294435903, 51.969450204999596, 62.605898984050235 
-138.1975944294004, 7.3719113733183725, 22.711354706054927, 159.68091007861128, 51.82104696212727, 62.60752809801025 
-139.0849579459776, 7.086597342043776, 22.7115334919518, 158.9658120537507, 51.675150657555996, 62.60913186089296 
-139.97314774042144, 6.805493020165767, 22.711702893200627, 158.25167328957284, 51.53178037102466, 62.61070991249188 
-140.86219284543023, 6.5286696399136925, 22.711863153028666, 157.53845927358466, 51.39095482398267, 62.61226190140961 
-141.75212021550206, 6.2561977455700895, 22.7120145193115, 156.8261365274938, 51.25269238012208, 62.61378748500497 
-142.64295472162155, 5.988147169615027, 22.712157244133113, 156.11467257467763, 51.117011045759064, 62.61528632933597 
-143.53471914704187, 5.724587007829299, 22.712291583342843, 155.40403590858713, 50.98392847007366, 62.61675810909969 
-144.4274341842471, 5.465585593392436, 22.712417796109538, 154.69419596204142, 50.85346194521724, 62.61820250756875 
-145.32111843318137, 5.211210470014487, 22.712536144473653, 153.98512307737167, 50.725628406296295, 62.619619216525145 
-146.21578840083043, 4.961528364143124, 22.71264689289783, 153.27678847737374, 50.60044443124096, 62.621007936191106 
-147.11145850224378, 4.716605156290305, 22.712750307816606, 152.56916423703174, 50.47792624056646, 62.62236837515735 
-148.0081410630819, 4.476505851525995, 22.712846657185697, 151.86222325597527, 50.35808969703553, 62.62370025030922 
-148.90584632377684, 4.241294549188635, 22.712936210031657, 151.15593923163544, 50.2409503052291, 62.62500328675078 
-149.80458244538895, 4.011034411865321, 22.713019236002353, 150.4502866330659, 50.126523211033, 62.62627721772674 
-150.70435551724427, 3.7857876336970824, 22.713096004918903, 149.74524067539627, 50.014823201047506, 62.62752178454306 
-151.60516956643326, 3.565615408067582, 22.713166786329616, 149.0407772948878, 49.90586470192676, 62.62873673648596 
-152.50702656925014, 3.350577894735955, 22.713231849066663, 148.33687312456033, 49.79966177965482, 62.629921830739704 
-153.40992646464866, 3.140734186477334, 22.71329146080587, 147.63350547036384, 49.69622813876443, 62.631076832303584 
-154.31386716978653, 2.936142275296882, 22.713345887630346, 146.93065228786602, 49.59557712150534, 62.6322015139078 
-155.21884459772795, 2.7368590182856196, 22.71339539359852, 146.22829215943054, 49.49772170696744, 62.63329565592916 
-156.12485267736827, 2.542940103188588, 22.713440240317034, 145.52640427186086, 49.402674510165305, 62.63435904630614 
-157.03188337564018, 2.35444001375801, 22.713480686519215, 144.82496839448586, 49.310447781089216, 62.63539148045393 
-157.93992672205658, 2.1714119949660264, 22.713516987649616, 144.12396485766448, 49.221053403728334, 62.636392761179636 
-158.84897083563814, 1.9939080181534883, 22.713549395455075, 143.4233745316872, 49.13450289507127, 62.637362698597535 
-159.75900195426888, 1.8219787461928, 22.713578157583065, 142.7231788060535, 49.050807404089106, 62.6383011100451 
-160.6700044665157, 1.6556734987442658, 22.7136035171876, 142.02335956910542, 48.96997771070564, 62.63920781999934 
-161.58196094594123, 1.495040217686707, 22.71362571254341, 141.3238991879976, 48.89202422475985, 62.64008265999446 
-162.49485218793168, 1.3401254328039303, 22.713644976668824, 140.6247804889857, 48.81695698496474, 62.640925468540175 
-163.40865724905518, 1.1909742278094355, 22.713661536957844, 139.9259867380152, 48.74478565786732, 62.64173609104162 
-164.32335348895606, 1.047630206792367, 22.713675614821945, 139.22750162159394, 48.67551953681357, 62.642514379720346 
-165.2389166147844, 0.9101354611677397, 22.713687425342012, 138.52930922793146, 48.60916754092268, 62.64326019353727 
-166.1553207281503, 0.7785305372141132, 22.713697176930967, 137.83139402833058, 48.545738214074404, 62.6439733981172 
-167.0725383745846, 0.6528544042813763, 22.71370507100742, 137.1337408588151, 48.48523972391294, 62.64465386567541 
-167.99054059547922, 0.5331444237509299, 22.713711301680853, 136.43633490198016, 48.42767986087137, 62.645301474946194 
-168.90929698246939, 0.4194363188293565, 22.71371605544878, 135.73916166905065, 48.373066037219616, 62.64591611111398 
-169.8287757342151, 0.3117641452557346, 22.713719510906163, 135.04220698213484, 48.32140528613925, 62.64649766574656 
-170.7489437155254, 0.21016026300102145, 22.713721838467606, 134.3454569566603, 48.27270426082842, 62.64704603673092 
-171.66976651876428, 0.11465530903621955, 22.71372320010262, 133.6488979839797, 48.22696923363944, 62.64756112821221 
-172.59120852746543, 0.025278171243872067, 22.713723749084323, 132.95251671413433, 48.18420609525209, 62.64804285053488 
-173.51323298207612, -0.05794403645491227, 22.71372362975192, 132.25630003876478, 48.14442035388498, 62.648491120187316 
-174.43580204774082, -0.13498599768860908, 22.713722977287254, 131.5602350741563, 48.10761713454759, 62.64890585974929 
-175.3588768840273, -0.20582421587213937, 22.713721917505797, 130.8643091444094, 48.073801178335074, 62.64928699784272 
-176.2824177164907, -0.2704370350293145, 22.71372056666221, 130.16850976472426, 48.04297684176805, 62.64963446908568 
-177.2063839099621, -0.32880465914148904, 22.71371903127094, 129.4728246247897, 48.01514809617927, 62.64994821404987 
-178.1307340434419, -0.38090916996656093, 22.71371740794189, 128.77724157226612, 47.990318527149014, 62.650228179221415 
-179.05542598647108, -0.42673454327684035, 22.713715783231518, 128.08174859635352, 47.968491333990706, 62.65047431696549 
-179.98041697684735, -0.46626666346845547, 22.7137142335095, 127.38633381143468, 47.94966932928836, 62.650686585494356 
179.09433630045302, -0.4994933364995172, 22.71371282484111, 126.69098544078484, 47.93385493848719, 62.65086494883918 
178.1688776332916, -0.5264043011190063, 22.713711612885586, 125.99569180033879, 47.92105019953824, 62.65100937682575 
177.2432512014715, -0.5469912383532601, 22.713710642810522, 125.30044128250631, 47.91125676259852, 62.651119845053756 
176.31750149508088, -0.5612477792218938, 22.71370994922237, 124.60522234002796, 47.90447588978705, 62.65119633488019 
175.39167323223302, -0.5691695106603422, 22.713709556113272, 123.91002346986173, 47.90070845499763, 62.65123883340655 
174.46581127636108, -0.570753979631269, 22.713709476824135, 123.2148331970933, 47.899954943769, 62.65124733346981 
173.5399605532291, -0.5660006954127238, 22.713709714024183, 122.51964005886033, 47.90221545321254, 62.651221833637685 
172.61416596782064, -0.5549111300560655, 22.713710259706794, 121.82443258828327, 47.90748969199777, 62.651162338207385 
171.68847232126865, -0.5374887170124499, 22.71371109520186, 121.12919929839418, 47.91577698039575, 62.6510688572089 
170.7629242279879, -0.5137388479318108, 22.713712191204465, 120.4339286660548, 47.92707625038023, 62.65094140641152 
169.83756603317255, -0.48366886764405814, 22.71371350781992, 119.73860911585616, 47.94138604578628, 62.65078000733515 
168.91244173081813, -0.4472880673372907, 22.71371499462511, 119.04322900399096, 47.958704522525814, 62.65058468726469 
167.98759488242573, -0.4046076759533693, 22.713716590746056, 118.34777660209005, 47.97902944885975, 62.65035547926885 
167.06306853654343, -0.35564084982647104, 22.71371822495159, 117.65224008101498, 48.00235820572565, 62.650092422222606 
166.1389051492951, -0.3004026605950311, 22.71371981576296, 116.95660749459732, 48.02868778712026, 62.64979556083354 
165.21514650604368, -0.238910081422961, 22.713721271579328, 116.26086676331639, 48.05801480053564, 62.64946494567177 
164.29183364433052, -0.17118197157034995, 22.713722490818952, 115.56500565790589, 48.0903354674478, 62.64910063320368 
163.3690067782268, -0.09723905935885058, 22.71372336207578, 114.86901178288058, 48.12564562385638, 62.648702685829335 
162.44670522422703, -0.01710392358113307, 22.713723764291377, 114.17287255997348, 48.16394072087387, 62.648271171923156 
161.52496732880834, 0.06919902659184973, 22.71372356694186, 113.47657521147384, 48.205215825362544, 62.64780616587833 
160.60383039777162, 0.16164357314820346, 22.713722630239673, 112.78010674345578, 48.24946562061751, 62.64730774815447 
159.68333062747396, 0.260201712155688, 22.713720805349837, 112.08345392888772, 48.29668440709344, 62.64677600532837 
158.76350303805344, 0.3648436780007757, 22.713717934620483, 111.38660329061184, 48.346866103173305, 62.64621103014815 
157.84438140873914, 0.4755379688782508, 22.713713851827293, 110.6895410841823, 48.400004245976206, 62.64561292159016 
156.92599821533125, 0.5922513734605448, 22.713708382431545, 109.99225328055164, 48.45609199220241, 62.644981784919224 
156.0083845699276, 0.7149489986734262, 22.713701343851504, 109.29472554859305, 48.5151221190123, 62.644317731751045 
155.09157016296356, 0.8435942985023506, 22.713692545746554, 108.59694323744674, 48.57708702493697, 62.643620880117794 
154.1755832076239, 0.9781491037519079, 22.71368179031402, 107.89889135867756, 48.64197873081725, 62.64289135453585 
153.2604503866764, 1.1185736526789474, 22.713668872598085, 107.20055456823113, 48.70978888076784, 62.64212928607619 
152.34619680176743, 1.2648266224188431, 22.713653580810337, 106.50191714817458, 48.780508743163644, 62.641334812436604 
151.43284592521164, 1.4168651611230692, 22.71363569666174, 105.80296298820807, 48.854129211644555, 62.64050807801633 
150.52041955429814, 1.5746449207256075, 22.71361499570541, 105.10367556693204, 48.9306408061352, 62.63964923399229 
149.60893776812802, 1.7381200902552756, 22.713591247689784, 104.40403793285543, 49.010033673875796, 62.63875843839703 
148.6984188869882, 1.9072434296107856, 22.713564216921768, 103.70403268512814, 49.09229759046016, 62.63783585619859 
147.78887943425988, 2.081966303715453, 22.713533662639275, 103.00364195398191, 49.177421960876885, 62.636881659381025 
146.8803341008502, 2.2622387169689566, 22.713499339392826, 102.30284738086186, 49.265395820549195, 62.63589602702672 
145.97279571212948, 2.4480093479140006, 22.7134609974355, 101.60163009823056, 49.356207836369244, 62.63487914539937 
145.06627519734772, 2.639225584036714, 22.71341838312094, 100.89997070902596, 49.449846307721984, 62.633831208027644 
144.16078156149797, 2.8358335566207034, 22.713371239308657, 100.19784926575369, 49.54629916749405, 62.63275241578991 
143.25632185958682, 3.0377781755759274, 22.713319305776345, 99.4952452491925, 49.64555398306253, 62.63164297699864 
142.35290117326636, 3.245003164165218, 22.713262319638417, 98.79213754669227, 49.74759795725853, 62.63050310748559 
141.45052258977577, 3.457451093552801, 22.713200015770404, 98.08850443004178, 49.85241792930005, 62.62933303068663 
140.54918718313579, 3.675063417101278, 22.71313212723856, 97.38432353288255, 49.96000037568896, 62.62813297772657 
139.64889399753326, 3.8977805043453397, 22.713058385734065, 96.67957182764525, 50.0703314110659, 62.62690318750313 
138.74964003283006, 4.125541674572914, 22.71297852201146, 95.97422560198237, 50.18339678901753, 62.62564390677077 
137.8514202321247, 4.35828522994655, 22.71289226633042, 95.26826043467094, 50.29918190282995, 62.62435539022311 
136.9542274712932, 4.595948488100399, 22.712799348900575, 94.56165117095759, 50.417671786181764, 62.62303790057487 
136.05805255043074, 4.838467814150712, 22.712699500328593, 93.8543718973168, 50.53885111377044, 62.62169170864178 
135.1628841871152, 5.085778652060181, 22.712592452067078, 93.1463959155921, 50.662704201865054, 62.62031709341954 
134.2687090114088, 5.337815555299405, 22.71247793686456, 92.43769571648866, 50.789215008778534, 62.61891434216069 
133.37551156251502, 5.594512216751194, 22.712355689216153, 91.72824295238438, 50.918367135251984, 62.61748375044971 
132.48327428700458, 5.855801497806499, 22.712225445814045, 91.01800840942457, 51.05014382474379, 62.61602562227566 
131.59197753852456, 6.1216154566031715, 22.712086945997488, 90.30696197886495, 51.18452796361561, 62.61454027010279 
130.7015995789037, 6.391885375361988, 22.711939932201528, 89.59507262762467, 51.32150208120721, 62.613028014938095 
129.81211658056776, 6.666541786776711, 22.711784150403926, 88.88230836801078, 51.461048349791966, 62.6114891863963 
128.92350263017758, 6.945514499418199, 22.711619350569684, 88.16863622657267, 51.603148584404394, 62.609924122761704 
128.03572973340562, 7.228732622114968, 22.711445287092648, 87.45402221204414, 51.74778424253065, 62.6083331710467 
127.14876782076561, 7.516124587275535, 22.711261719233455, 86.7384312823284, 51.89493642365288, 62.606716687046784 
126.26258475441291, 7.807618173120669, 22.71106841155343, 86.02182731047934, 52.04458586863807, 62.60507503539197 
125.3771463358347, 8.103140524795972, 22.71086513434373, 85.30417304963063, 52.19671295896094, 62.60340858959402 
124.49241631435086, 8.40261817433824, 22.710651664049227, 84.58543009682195, 52.351297715751194, 62.601717732089945 
123.60835639635015, 8.705977059471238, 22.71042778368651, 83.8655588556695, 52.50831979865393, 62.60000285428068 
122.72492625518719, 9.013142541209284, 22.71019328325561, 83.14451849782557, 52.66775850449255, 62.598264356565885 
121.8420835416711, 9.324039420249104, 22.70994796014467, 82.42226692316976, 52.829592765722154, 62.59650264837317 
120.95978389507798, 9.63859195213319, 22.709691619527206, 81.69876071867168, 52.993801148662, 62.59471814818313 
120.07798095462495, 9.956723861169671, 22.70942407475135, 80.97395511586294, 53.160361851494045, 62.59291128354903 
119.19662637134542, 10.278358353096301, 22.709145147720644, 80.24780394685278, 53.3292527020148, 62.59108249111095 
118.31566982031127, 10.603418126477955, 22.7088546692657, 79.52025959881969, 53.50045115512714, 62.589232216604756 
117.43505901315088, 10.931825382829288, 22.70855247950644, 78.79127296690834, 53.673934290057545, 62.58736091486543 
116.55473971081615, 11.263501835456017, 22.708238428204325, 78.06079340545739, 53.84967880728473, 62.58546904982429 
115.6746557365583, 11.598368717010121, 22.70791237510405, 77.3287686774825, 54.02766102516354, 62.58355709450055 
114.79474898907473, 11.936346785756333, 22.70757419026441, 76.59514490233317, 54.207856876228846, 62.581625530986464 
113.91495945579652, 12.277356330548535, 22.707223754377694, 75.85986650144157, 54.390241903162284, 62.57967485042645 
113.03522522629027, 12.621317174516948, 22.70686095907734, 75.12287614207553, 54.574791254404644, 62.577705552989514 
112.15548250575408, 12.96814867746796, 22.70648570723333, 74.38411467900659, 54.761479679395386, 62.5757181478352 
111.27566562859296, 13.317769737000589, 22.70609791323499, 73.64352109399886, 54.95028152342048, 62.57371315307289 
110.39570707206516, 13.670098788344573, 22.705697503260744, 72.90103243302175, 55.141170722048464, 62.571691095714066 
109.51553746999681, 14.025053802926786, 22.705284415534503, 72.15658374108547, 55.33412079513371, 62.5696525116179 
108.63508562656847, 14.382552285674173, 22.704858600568343, 71.41010799459437, 55.52910484036514, 62.56759794542943 
107.7542785301842, 14.742511271062382, 22.704420021390987, 70.66153603110976, 55.72609552633735, 62.56552795051073 
106.87304136743943, 15.104847317921145, 22.703968653762075, 69.91079647640912, 55.92506508512015, 62.563443088864865 
105.99129753721246, 15.46947650300825, 22.703504486371536, 69.15781566872543, 56.12598530430096, 62.561343931052356 
105.10896866490916, 15.836314413365827, 22.703027521024122, 68.40251758004581, 56.328827518474085, 62.559231056100124 
