# MEX_intpoint_lon [deg], MEX_intpoint_lat [deg], MEX_intpoint_angle [deg], TGO_intpoint_lon [deg], TGO_intpoint_lat [deg], TGO_intpoint_angle [deg] 
-104.18340608160648, 20.477364661605094, 22.443396060823062, -156.67051599736908, 59.15008145480439, 62.52846962241143 
-105.08813990919306, 20.10328244384601, 22.443996433185003, -157.46996774436528, 58.929942460949, 62.53065493561491 
-105.99117483359508, 19.73023413069343, 22.444586070036202, -158.26585259427654, 58.71127820329883, 62.53283467602943 
-106.89260462063153, 19.358310005852456, 22.44516480460632, -159.05828404355353, 58.49412419031556, 62.535008183527324 
-107.79252164597442, 18.98759968471071, 22.44573248312214, -159.8473720190374, 58.278515300598514, 62.53717480437513 
-108.69101686854825, 18.618192132362314, 22.446288964827183, -160.63322299847925, 58.06448580125961, 62.53933389141776 
-109.58817980531826, 18.25017568085422, 22.446834121985543, -161.4159401268061, 57.852069365298895, 62.54148480425558 
-110.48409850733626, 17.883638045618493, 22.44736783987015, -162.19562332825498, 57.64129908802754, 62.54362690941384 
-111.37885953692246, 17.51866634105612, 22.447890016735357, -162.97236941450265, 57.43220750258253, 62.545759580504566 
-112.27254794587041, 17.155347095240366, 22.448400563774097, -163.74627218891564, 57.22482659457547, 62.54788219838123 
-113.16524725457074, 16.79376626370958, 22.448899405059567, -164.51742254704766, 57.01918781591596, 62.54999415128558 
-114.05703943195734, 16.43400924232132, 22.4493864774716, -165.28590857350872, 56.81532209784804, 62.552094834987116 
-114.94800487618892, 16.076160879141593, 22.44986173060793, -166.05181563533148, 56.61325986323653, 62.55418365291535 
-115.83822239598567, 15.720305485344555, 22.45032512668043, -166.81522647195638, 56.41303103813822, 62.55626001628414 
-116.7277691925491, 15.36652684510002, 22.450776640396445, -167.57622128195703, 56.214665062691374, 62.55832334420908 
-117.616720842001, 15.01490822442739, 22.451216258825553, -168.33487780662423, 56.01819090135535, 62.56037306381721 
-118.50515127828392, 14.665532378996533, 22.45164398125184, -169.09127141052477, 55.823637052530906, 62.56240861034953 
-119.39313277647379, 14.318481560857272, 22.452059819012003, -169.84547515914846, 55.6310315575898, 62.56442942725637 
-120.28073593646151, 13.973837524081175, 22.45246379531935, -170.59755989375435, 55.44040200934181, 62.56643496628528 
-121.16802966696773, 13.63168152930015, 22.45285594507421, -171.34759430352386, 55.25177555996515, 62.568424687562114 
-122.05508116986086, 13.292094347128426, 22.453236314660835, -172.09564499512547, 55.06517892842569, 62.57039805966489 
-122.94195592475603, 12.955156260455531, 22.453604961731084, -172.8417765597934, 54.88063840740893, 62.572354559690766 
-123.82871767387745, 12.620947065599594, 22.453961954975412, -173.58605163801872, 54.69817986978773, 62.57429367331618 
-124.71542840717417, 12.289546072311527, 22.454307373881104, -174.32853098194855, 54.51782877464775, 62.57621489485018 
-125.60214834768401, 11.961032102622369, 22.4546413084785, -175.06927351558647, 54.339610172891376, 62.57811772728125 
-126.48893593714678, 11.635483488527472, 22.454963859075242, -175.80833639288326, 54.163548712440544, 62.58000168231743 
-127.3758478218737, 11.312978068502597, 22.45527513597917, -176.54577505380504, 53.989668643057186, 62.58186628042026 
-128.26293883888403, 10.993593182848938, 22.45557525920992, -177.28164327846235, 53.81799382079992, 62.58371105083219 
-129.15026200232725, 10.677405667865262, 22.455864358200042, -178.01599323938058, 53.64854771213455, 62.58553553159822 
-130.0378684902119, 10.364491848847372, 22.45614257148561, -178.7488755519902, 53.481353397715, 62.587339269581165 
-130.92580763146896, 10.054927531916597, 22.45641004638707, -179.4803393234115, 53.31643357585088, 62.589121820471426 
-131.8141268933806, 9.7487879946809, 22.456666938680577, 179.78956780039414, 53.15381056567725, 62.59088274879079 
-132.70287186941164, 9.446147975733844, 22.456913412260327, 179.0607995890359, 52.99350631004114, 62.5926216278909 
-133.5920862674829, 9.147081662998794, 22.457149638792323, 178.33331118360206, 52.83554237811927, 62.594338039946294 
-134.481811898732, 8.851662680927413, 22.45737579736002, 177.60705905400053, 52.67993996778045, 62.59603157594225 
-135.37208866680928, 8.55996407656361, 22.457592074102397, 176.88200095766882, 52.52671990770582, 62.59770183565763 
-136.26295455776173, 8.272058304486118, 22.457798661844834, 176.15809589959468, 52.37590265927955, 62.59934842764278 
-137.15444563055914, 7.988017210645158, 22.457995759723303, 175.4353040935894, 52.227508318262046, 62.600970969193014 
-138.046596008322, 7.707912015110513, 22.458183572802515, 174.71358692475908, 52.0815566162574, 62.60256908631727 
-138.93943787031293, 7.431813293750729, 22.45836231168831, 173.99290691312007, 51.93806692198613, 62.60414241370283 
-139.8330014447541, 7.159790958865576, 22.458532192134943, 173.27322767830933, 51.79705824237412, 62.60569059467569 
-140.72731500253948, 6.891914238795888, 22.458693434647756, 172.55451390533864, 51.65854922346825, 62.607213281157165 
-141.6224048519084, 6.628251656537625, 22.458846264081803, 171.83673131134788, 51.522558151188434, 62.60871013361667 
-142.51829533415204, 6.368871007389162, 22.45899090923682, 171.11984661331073, 51.389102951926084, 62.610180821021245 
-143.41500882042425, 6.11383933566336, 22.459127602449275, 170.40382749665048, 51.25820119299805, 62.611625020781425 
-144.31256570972948, 5.8632229104984654, 22.459256579181833, 169.688642584724, 51.12987008296509, 62.613042418694306 
-145.2109844281618, 5.617087200804324, 22.45937807761099, 168.97426140913416, 51.0041264718237, 62.61443270888361 
-146.11028142946876, 5.375496849382973, 22.459492338213185, 168.26065438083265, 50.8809868510795, 62.615795593737005 
-147.0104711970152, 5.138515646265005, 22.459599603350153, 167.54779276197598, 50.7604673537103, 62.617130783841134 
-147.91156624721938, 4.906206501305956, 22.45970011685395, 166.83564863850032, 50.64258375402684, 62.61843799791415 
-148.81357713453673, 4.6786314160889955, 22.459794123612145, 166.1241948933807, 50.52735146743842, 62.619716962736405 
-149.7165124580612, 4.455851455183116, 22.459881869153964, 165.4134051805424, 50.414785550131185, 62.62096741307907 
-150.62037886981682, 4.237926716808042, 22.459963599237582, 164.70325389939384, 50.30490069866566, 62.62218909163143 
-151.5251810848071, 4.024916302959802, 22.4600395594394, 163.99371616995066, 50.197711249500756, 62.62338174892638 
-152.43092189288933, 3.816878289052911, 22.460109994745782, 163.28476780852273, 50.09323117845047, 62.62454514326499 
-153.33760217253771, 3.6138696931376204, 22.46017514914761, 162.57638530393683, 49.9914741000801, 62.625679040639994 
-154.24522090655566, 3.41594644475264, 22.46023526523848, 161.86854579426833, 49.89245326704765, 62.62678321465823 
-155.15377519979512, 3.2231633534758566, 22.46029058381681, 161.16122704405703, 49.796181569396914, 62.627857446463 
-156.0632602989361, 3.0355740772375657, 22.46034134349261, 160.4544074219831, 49.7026715338074, 62.6289015246554 
-156.97366961437507, 2.853231090462495, 22.460387780299218, 159.74806587897922, 49.611935322807334, 62.629915245216 
-157.88499474426737, 2.6761856521085003, 22.460430127310673, 159.04218192675796, 49.52398473395446, 62.63089841142613 
-158.7972255007622, 2.5044877736714954, 22.460468614265157, 158.33673561673191, 49.4388311989903, 62.631850833789684 
-159.71034993846467, 2.338186187227313, 22.46050346719508, 157.6317075193067, 49.35648578297273, 62.63277232995497 
-160.62435438515254, 2.1773283135825885, 22.46053490806412, 156.9270787035272, 49.27695918339151, 62.63366272463741 
-161.53922347476998, 2.021960230607572, 22.460563154411943, 156.22283071705812, 49.200261729271794, 62.634521849543 
-162.45494018271364, 1.872126641824599, 22.460588419006868, 155.518945566481, 49.126403380269736, 62.63534954329242 
-163.37148586342033, 1.7278708453265363, 22.460610909507082, 154.81540569789, 49.05539372576471, 62.63614565134665 
-164.28884029025772, 1.5892347030998315, 22.460630828130697, 154.11219397777006, 48.98724198395224, 62.63691002593364 
-165.20698169771327, 1.4562586108269089, 22.460648371335278, 153.4092936741416, 48.921957000941546, 62.63764252597645 
-166.12588682586832, 1.3289814682425236, 22.460663729507086, 152.70668843795585, 48.859547249861635, 62.638343017023296 
-167.04553096713786, 1.207440650118243, 22.46067708666061, 152.00436228472674, 48.80002082997944, 62.63901137117888 
-167.96588801524766, 1.091671977948714, 22.460688620148577, 151.30229957638457, 48.743385465833555, 62.63964746703817 
-168.88693051641323, 0.9817096924122819, 22.460698500383106, 150.60048500333798, 48.689648506387044, 62.6402511896221 
-169.80862972267778, 0.8775864266775764, 22.4607068905681, 149.8989035667314, 48.63881692420209, 62.64082243031523 
-170.73095564735783, 0.7793331806260747, 22.46071394644343, 149.19754056088445, 48.59089731463995, 62.64136108680633 
-171.65387712253772, 0.6869792960590483, 22.460719816041085, 148.49638155590213, 48.545895895088755, 62.641867063030986 
-172.57736185854642, 0.6005524329553205, 22.46072463945382, 147.79541238044274, 48.503818504221975, 62.642340269117 
-173.50137650534307, 0.5200785468440762, 22.460728548616387, 147.0946191046337, 48.46467060128999, 62.642780621332776 
-174.42588671572946, 0.44558186735439215, 22.460731667099793, 146.39398802312223, 48.42845726544723, 62.64318804203811 
-175.35085721030146, 0.37708487800051105, 22.460734109918754, 145.6935056382521, 48.395183195117156, 62.6435624596384 
-176.27625184404363, 0.3146082972589495, 22.46073598335278, 144.9931586433547, 48.36485270739689, 62.643903808541666 
-177.20203367446538, 0.25817106099015924, 22.46073738478082, 144.2929339061451, 48.33746973750376, 62.6442120291187 
-178.12816503117043, 0.20779030625418124, 22.46073840253001, 143.5928184522128, 48.31303783826514, 62.644487067666866 
-179.05460758674522, 0.1634813565660637, 22.46073911573854, 142.89279944859803, 48.291560179653565, 62.644728876376604 
-179.98132242884773, 0.12525770863288857, 22.46073959423289, 142.19286418744355, 48.27303954836819, 62.64493741330185 
179.09172986662904, 0.09313102061028934, 22.46073989841947, 141.49300006971401, 48.25747834746419, 62.6451126423337 
178.1645891614467, 0.06711110191217379, 22.460740079191094, 140.7931945889722, 48.244878596031, 62.645254533177635 
177.23729568009804, 0.047205904602934036, 22.460740177848074, 140.093435315205, 48.23524192892048, 62.645363061334166 
176.30988993420627, 0.03342151639704219, 22.460740226034293, 139.39370987868915, 48.22856959652589, 62.645438208083526 
175.38241264638668, 0.025762155286253804, 22.46074024568817, 138.6940059538891, 48.2248624646121, 62.64547996047339 
174.45490467371195, 0.024230165810094392, 22.460740249008744, 137.99431124337747, 48.224121014197856, 62.64548831131073 
173.52740693092466, 0.028826016980310985, 22.460740238436774, 137.29461346177075, 48.2263453414902, 62.64546325915715 
172.59996031354103, 0.03954830186550821, 22.46074020665094, 136.59490031967098, 48.23153515787132, 62.64540480832804 
171.67260562099108, 0.05639373883703728, 22.4607401365792, 135.89515950760548, 48.23968978993791, 62.64531296889525 
170.7453834799395, 0.07935717447256496, 22.460740001425233, 135.19537867995595, 48.25080817959293, 62.64518775669357 
169.8183342679312, 0.10843158810891704, 22.46073976470988, 134.49554543886885, 48.26488888418937, 62.645029193330906 
168.89149803750442, 0.1436080980309042, 22.460739380327638, 133.79564731813804, 48.28193007672574, 62.644837306202064 
167.9649144409112, 0.1848759692782352, 22.460738792618123, 133.0956717670519, 48.30192954609263, 62.644612128506125 
167.0386226555838, 0.23222262304796532, 22.460737936452265, 132.39560613419542, 48.32488469736956, 62.64435369926755 
166.11266131048123, 0.28563364766528404, 22.460736737333274, 131.69543765119928, 48.350792552171356, 62.644062063360586 
165.1870684134473, 0.3450928110912289, 22.460735111512253, 130.99515341642623, 48.37964974904277, 62.64373727153744 
164.2618812797068, 0.41058207493147186, 22.46073296611812, 130.29474037858677, 48.41145254390048, 62.64337938045967 
163.3371364616221, 0.48208160990624943, 22.460730199301864, 129.59418532027337, 48.44619681052075, 62.64298845273311 
162.41286967982595, 0.5595698127376502, 22.460726700394847, 128.8934748414055, 48.48387804107145, 62.64256455694587 
161.48911575584353, 0.6430233244066393, 22.460722350080967, 128.19259534257415, 48.52449134668666, 62.64210776770977 
160.56590854630673, 0.7324170497286686, 22.460717020582468, 127.49153300827714, 48.56803145808217, 62.64161816570482 
159.64328087886088, 0.8277241781934491, 22.46071057585905, 126.79027379003422, 48.614492726209676, 62.6410958377266 
158.7212644898551, 0.9289162060113773, 22.4607028718202, 126.0888033893715, 48.66386912294769, 62.640540876736736 
157.79988996390128, 1.0359629593060868, 22.460693756550274, 125.38710724066492, 48.71615424182685, 62.639953381916136 
156.87918667537977, 1.1488326183902915, 22.460683070546164, 124.68517049383057, 48.77134129878708, 62.639333458720735 
155.95918273196145, 1.2674917430594446, 22.46067064696713, 123.98297799685116, 48.8294231329641, 62.6386812189402 
155.03990492020907, 1.3919052988358427, 22.46065631189658, 123.2805142781259, 48.8903922075025, 62.63799678075873 
154.12137865331306, 1.5220366840938728, 22.46063988461535, 122.57776352863182, 48.954240610392304, 62.63728026881824 
153.20362792100818, 1.6578477579955693, 22.46062117788616, 121.87470958388337, 49.0209600553262, 62.63653181428385 
152.2866752417115, 1.7992988691644225, 22.46059999824888, 121.1713359056768, 49.09054188257402, 62.635751554911316 
151.37054161691228, 1.9463488850241701, 22.4605761463262, 120.46762556360565, 49.162977059871025, 62.63493963511622 
150.45524648783845, 2.0989552217287404, 22.460549417139326, 119.76356121633269, 49.23825618331656, 62.63409620604502 
149.54080769441575, 2.2570738746088717, 22.46051960043318, 119.0591250926033, 49.31636947827933, 62.63322142564764 
148.6272414365282, 2.420659449060716, 22.460486481010896, 118.35429897198432, 49.397306800305316, 62.632315458751364 
147.71456223758202, 2.5896651918016755, 22.460449839076862, 117.64906416531284, 49.48105763602441, 62.63137847713595 
146.8027829103673, 2.7640430224190085, 22.460409450588145, 116.943401494837, 49.567611104051345, 62.63041065960991 
145.89191452520492, 2.9437435651372077, 22.460365087613628, 116.23729127403168, 49.65695595587684, 62.629412192087415 
144.98196638036052, 3.128716180730633, 22.460316518700537, 115.53071328707067, 49.749080576744056, 62.62838326766612 
144.07294597469962, 3.3189089985090767, 22.460263509247714, 114.82364676793566, 49.84397298650581, 62.627324086705215 
143.16485898255368, 3.5142689483047063, 22.460205821885307, 114.11607037914261, 49.941620840457745, 62.62623485690408 
142.2577092307599, 3.714741792390305, 22.46014321686023, 113.40796219006415, 50.042011430142004, 62.62511579338066 
141.35149867783304, 3.920272157260044, 22.460075452427034, 112.6992996548266, 50.145131684116464, 62.62396711875014 
140.44622739522242, 4.130803565205681, 22.460002285243473, 111.99005958975872, 50.250968168684, 62.62278906320302 
139.54189355060325, 4.346278465622746, 22.45992347077046, 111.28021815036857, 50.3595070885759, 62.62158186458278 
138.63849339314592, 4.566638265983292, 22.459838763675755, 110.56975080782392, 50.470734287583895, 62.62034576846291 
137.73602124070536, 4.7918233624136, 22.459747918240858, 109.85863232491042, 50.584635249134394, 62.61908102822297 
136.83446946886735, 5.02177316981741, 22.4596506887706, 109.14683673144067, 50.70119509679899, 62.61778790512352 
135.9338285017863, 5.25642615148761, 22.459546830004907, 108.43433729908634, 50.82039859473452, 62.61646666837977 
135.03408680474783, 5.495719848151226, 22.459436097532166, 107.72110651560408, 50.94223014804606, 62.61511759523366 
134.13523087838485, 5.73959090639527, 22.4593182482036, 107.00711605842483, 51.06667380306577, 62.61374097102431 
133.23724525447705, 5.987975106423151, 22.459193040548268, 106.29233676757498, 51.19371324754076, 62.612337089256236 
132.3401124932597, 6.240807389094005, 22.45906023518788, 105.57673861789597, 51.32333181072207, 62.61090625166571 
131.44381318216963, 6.498021882199492, 22.458919595251242, 104.86029069052837, 51.45551246334741, 62.60944876828474 
130.54832593595253, 6.759551925935515, 22.45877088678732, 104.14296114362402, 51.59023781750968, 62.60796495750215 
129.65362739805917, 7.025330097528294, 22.45861387917684, 103.42471718224924, 51.72749012640282, 62.60645514612219 
128.75969224325488, 7.295288234977369, 22.458448345541587, 102.70552502743965, 51.867251283936724, 62.604919669420156 
127.8664931813701, 7.569357459879971, 22.458274063150967, 101.9853498843664, 52.009502824212184, 62.60335887119456 
126.97400096211928, 7.84746819930412, 22.458090813825226, 101.264155909571, 52.15422592084678, 62.601773103816036 
126.08218438091646, 8.129550206680218, 22.45789838433494, 100.54190617722493, 52.301401386142345, 62.60016272827276 
125.19101028561923, 8.415532581683028, 22.457696566796045, 99.81856264436793, 52.451009670083955, 62.59852811421193 
124.30044358413204, 8.705343789078784, 22.45748515906011, 99.09408611507693, 52.60303085916036, 62.59686963997732 
123.41044725280483, 8.998911676514085, 22.45726396509907, 98.36843620351623, 52.75744467499528, 62.59518769264241 
122.52098234556323, 9.29616349122596, 22.457032795384197, 97.64157129581619, 52.9142304727785, 62.59348266803955 
121.63200800371068, 9.597025895654177, 22.456791467258565, 96.91344851072749, 53.073367239485435, 62.591754970784244 
120.74348146634532, 9.901424981939863, 22.45653980530266, 96.18402365899357, 53.23483359187322, 62.59000501429473 
119.85535808133793, 10.20928628529571, 22.456277641692584, 95.45325120138365, 53.39860777424089, 62.588233220806764 
118.96759131682055, 10.520534796235966, 22.456004816550426, 94.72108420532506, 53.56466765594108, 62.58644002138304 
118.08013277313941, 10.835094971655865, 22.4557211782862, 93.9874743000715, 53.73299072862964, 62.5846258559176 
117.1929321952298, 11.152890744752304, 22.455426583931175, 93.25237163034198, 53.90355410323924, 62.58279117313471 
116.305937485374, 11.473845533779704, 22.45512089946172, 92.51572480836141, 54.076334506662704, 62.58093643058203 
115.419094716309, 11.797882249636277, 22.454804000113736, 91.77748086423261, 54.25130827813065, 62.5790620946181 
114.53234814465401, 12.124923302278404, 22.45447577068676, 91.03758519456532, 54.42845136526781, 62.57716864039406 
113.64564022463357, 12.454890605961884, 22.454136105837712, 90.29598150928645, 54.607739319811664, 62.57525655182885 
112.75891162207628, 12.787705583311153, 22.453784910363638, 89.55261177655173, 54.78914729297607, 62.57332632157893 
111.87210122867475, 13.12328916821856, 22.453422099473265, 88.80741616567694, 54.97265003044193, 62.57137845100092 
110.98514617649734, 13.461561807577993, 22.453047599046737, 88.06033298800325, 55.15822186695637, 62.5694134501083 
110.09798185274816, 13.80244346185817, 22.452661345883477, 87.31129863560894, 55.34583672052049, 62.567431837521426 
109.21054191477715, 14.145853604522818, 22.452263287937573, 86.56024751777593, 55.53546808614556, 62.56543414041064 
108.3227583053475, 14.491711220306339, 22.451853384540527, 85.8071119951171, 55.72708902915595, 62.563420894432774 
107.4345612681749, 14.839934802354836, 22.451431606610956, 85.05182231126717, 55.920672178016424, 62.561392643660845 
106.54587936375768, 15.190442348244225, 22.450997936851014, 84.29430652203658, 56.11618971666043, 62.55934994050643 
105.65663948552469, 15.543151354888225, 22.45055236992919, 83.53449042192528, 56.3136133762946, 62.55729334563534 
104.76676687633315, 15.897978812350777, 22.450094912649284, 82.77229746788967, 56.51291442665385, 62.55522342787591 
