# MEX_intpoint_lon [deg], MEX_intpoint_lat [deg], MEX_intpoint_angle [deg], TGO_intpoint_lon [deg], TGO_intpoint_lat [deg], TGO_intpoint_angle [deg] 
-103.90157589963925, 20.41116256276468, 22.277456998450127, -147.21375678834565, 59.01830449801571, 62.52990283529467 
-104.81130506178894, 20.04580016648996, 22.27803716371444, -148.00589465350376, 58.79422911860487, 62.53213297093782 
-105.71934530341511, 19.681423995473928, 22.278607159082487, -148.7945249111939, 58.57167266951805, 62.534357302669015 
-106.62578675935507, 19.3181233210947, 22.279166823082324, -149.57976121630588, 58.350670483583976, 62.536575157053164 
-107.53071828215808, 18.955986756779186, 22.279716006553205, -150.36171357388733, 58.131257273829696, 62.53878586732244 
-108.43422741287941, 18.595102273982626, 22.28025457266517, -151.14048846602685, 57.91346715178478, 62.54098877356418 
-109.33640035333823, 18.23555721748264, 22.28078239692365, -151.91618897400818, 57.697333644763226, 62.54318322290042 
-110.2373219397152, 17.877438319950176, 22.281299367159445, -152.68891489589126, 57.482889712172586, 62.54536856966018 
-111.13707561737489, 17.520831715761574, 22.281805383503716, -153.45876285967947, 57.27016776089683, 62.54754417554358 
-112.03574341680472, 17.16582295401885, 22.28230035834845, -154.2258264322271, 57.059199659797585, 62.549709409778465 
-112.93340593057142, 16.812497010746597, 22.282784216292193, -154.99019622404163, 56.85001675337587, 62.55186364926885 
-113.83014229120252, 16.460938300236606, 22.283256894071407, -155.75195999013098, 56.64264987463478, 62.55400627873581 
-114.72603014990864, 16.11123068551274, 22.28371834047728, -156.5112027270442, 56.43712935718122, 62.5561366908506 
-115.62114565606949, 15.763457487890557, 22.28416851625855, -157.26800676625027, 56.23348504660317, 62.55825428635988 
-116.5155634374134, 15.41770149560804, 22.284607394010045, -158.0224518639958, 56.03174631115723, 62.56035847420328 
-117.40935658082809, 15.074044971505213, 22.28503495804752, -158.77461528777994, 55.831942051799224, 62.56244867162334 
-118.30259661374559, 14.73256965973246, 22.285451204268686, -159.52457189957988, 55.63410071158961, 62.564524304267806 
-119.19535348605355, 14.393356791468399, 22.285856140000774, -160.27239423595654, 55.43825028450306, 62.56658480628437 
-120.08769555248841, 14.05648708963038, 22.28624978383497, -161.01815258516726, 55.24441832367126, 62.568629620407876 
-120.9796895554755, 13.722040772561607, 22.28663216544768, -161.76191506140674, 55.05263194908559, 62.57065819804025 
-121.8714006083848, 13.390097556680866, 22.287003325409145, -162.50374767629447, 54.862917854785834, 62.57266999932293 
-122.76289217917915, 13.060736658082034, 22.287363314979604, -163.2437144077229, 54.67530231555936, 62.574664493202285 
-123.6542260744354, 12.734036793072281, 22.28771219589322, -163.9818772661762, 54.48981119317433, 62.576641157487735 
-124.54546242372741, 12.410076177639235, 22.28805004013014, -164.71829635862596, 54.30646994216946, 62.57859947890291 
-125.4366596643628, 12.088932525838983, 22.288376929677042, -165.45302995010636, 54.125303615221384, 62.580538953129995 
-126.3278745264721, 11.77068304709837, 22.288692956276403, -166.18613452306732, 53.946336868110706, 62.5824590848472 
-127.21916201845467, 11.45540444242645, 22.288998221164903, -166.917664834601, 53.76959396430532, 62.58435938775961 
-128.1105754127889, 11.1431728995318, 22.28929283480134, -167.64767397163249, 53.595098779180645, 62.58623938462359 
-129.0021662322216, 10.834064086843778, 22.28957691658434, -168.37621340416342, 53.422874803893755, 62.58809860726474 
-129.89398423635396, 10.528153146437692, 22.28985059456038, -169.10333303665269, 53.25294514892913, 62.58993659658971 
-130.78607740864763, 10.225514685865344, 22.290114005122366, -169.8290812576153, 53.085332547331866, 62.59175290259196 
-131.67849194387793, 9.926222768894426, 22.290367292699248, -170.5535049875183, 52.92005935764439, 62.593547084351485 
-132.5712722360661, 9.630350905161661, 22.290610609437223, -171.2766497250479, 52.75714756656132, 62.5953187100291 
-133.4644608669256, 9.337972038746912, 22.29084411487262, -171.9985595918203, 52.59661879131718, 62.59706735685488 
-134.358098594862, 9.049158535676934, 22.291067975597294, -172.71927737560554, 52.43849428182045, 62.59879261111127 
-135.2522243445699, 8.763982170369589, 22.291282364916675, -173.4388445721301, 52.28279492254752, 62.60049406811129 
-136.14687519727215, 8.482514111031346, 22.291487462501085, -174.15730142552277, 52.129541234208936, 62.60217133217126 
-137.04208638165213, 8.204824904022882, 22.291683454030764, -174.87468696746387, 51.978753375200405, 62.60382401657914 
-137.9378912655301, 7.930984457209693, 22.291870530835048, -175.59103905509738, 51.8304511428503, 62.605451743557936 
-138.8343213483402, 7.661062022316671, 22.292048889526185, -176.30639440776176, 51.6846539744747, 62.60705414422479 
-139.7314062544641, 7.3951261763080485, 22.29221873162828, -177.02078864259258, 51.54138094825129, 62.608630858545965 
-140.62917372748245, 7.133244801815842, 22.29238026320191, -177.73425630905027, 51.40065078392226, 62.61018153528764 
-141.5276496254045, 6.8754850666427645, 22.29253369446479, -178.44683092242073, 51.26248184333639, 62.61170583196287 
-142.42685791693955, 6.621913402367361, 22.29267923940914, -179.15854499633727, 51.12689213084022, 62.613203414775164 
-143.32682067887515, 6.372595482081692, 22.292817115416106, -179.86943007436906, 50.99389929352743, 62.61467395855846 
-144.22755809462663, 6.127596197294017, 22.2929475428679, 179.4204832392802, 50.863520621355725, 62.61611714671396 
-145.12908845402458, 5.8869796340316185, 22.29307074475803, 178.7111652499222, 50.73577304713989, 62.61753267114413 
-146.0314281544069, 5.650809048180727, 22.29318694630027, 178.00258714334188, 50.61067314642944, 62.618920232183726 
-146.93459170308185, 5.419146840103275, 22.29329637453671, 177.29472095752516, 50.488237137279036, 62.62027953852868 
-147.83859172122763, 5.192054528572403, 22.29339925794564, 176.58753955512003, 50.36848087991965, 62.6216103071622 
-148.74343894929538, 4.969592724070721, 22.293495826049572, 175.88101659659574, 50.25141987633794, 62.622912263279105 
-149.64914225397823, 4.751821101498024, 22.293586309023997, 175.1751265140663, 50.13706926977136, 62.624185140208326 
-150.55570863681103, 4.538798372336951, 22.293670937307464, 174.469844485746, 50.025443844125974, 62.62542867933341 
-151.463143244461, 4.330582256327611, 22.293749941213395, 173.76514641100664, 49.916558023324086, 62.62664263001211 
-152.37144938076852, 4.127229452703997, 22.293823550544143, 173.0610088860061, 49.810425870588084, 62.62782674949435 
-153.2806285205952, 3.9287956110473354, 22.29389199420791, 172.35740917986035, 49.70706108766716, 62.62898080283932 
-154.1906803255316, 3.7353353018133135, 22.293955499838965, 171.65432521133175, 49.606477014012995, 62.63010456283189 
-155.10160266151638, 3.546901986591899, 22.294014293421608, 170.9517355260077, 49.50868662591058, 62.631197809898325 
-156.01339161841275, 3.3635479881604957, 22.29406859891848, 170.2496192739446, 49.41370253556975, 62.6322603320219 
-156.92604153158445, 3.185324460392513, 22.29411863790363, 169.54795618775316, 49.32153699018338, 62.6332919246579 
-157.8395450055112, 3.012281358085051, 22.294164629200907, 168.84672656110277, 49.2322018709574, 62.63429239064932 
-158.75389293947518, 2.844467406770798, 22.29420678852807, 168.14591122762252, 49.145708692118035, 62.63526154014229 
-159.66907455534894, 2.6819300725802777, 22.29424532814709, 167.44549154017804, 49.062068599901316, 62.6361991905023 
-160.585077427507, 2.5247155322217303, 22.294280456521246, 166.7454493505044, 48.98129237152969, 62.6371051662309 
-161.50188751487914, 2.3728686431467403, 22.294312377979224, 166.04576698917518, 48.90339041418046, 62.6379792988836 
-162.4194891951568, 2.2264329139703447, 22.294341292386903, 165.3464272458901, 48.828372763950696, 62.63882142698829 
-163.33786530115896, 2.0854504752147567, 22.294367394827134, 164.64741335006292, 48.75624908482284, 62.63963139596546 
-164.25699715935576, 1.9499620504462478, 22.29439087528792, 163.94870895169262, 48.687028667635204, 62.64040905804956 
-165.17686463054346, 1.8200069278746405, 22.29441191835953, 163.25029810250223, 48.62072042906162, 62.64115427221198 
-166.09744615265578, 1.6956229324846943, 22.2944307029408, 162.55216523732886, 48.55733291060373, 62.641866904085816 
-167.01871878569168, 1.5768463987682781, 22.2944474019551, 161.85429515575063, 48.49687427759999, 62.642546825892865 
-167.9406582587306, 1.4637121441255698, 22.294462182076373, 161.15667300393574, 48.439352318254706, 62.643193916372105 
-168.86323901900116, 1.3562534430026492, 22.2944752034655, 160.45928425669985, 48.38477444269046, 62.64380806071113 
-169.78643428296095, 1.2545020018316715, 22.294486619517375, 159.76211469975865, 48.333147682027345, 62.64438915047956 
-170.7102160893378, 1.1584879348385195, 22.294496576619203, 159.06515041216275, 48.28447868749185, 62.64493708356523 
-171.6345553540775, 1.0682397407811097, 22.294505213920004, 158.36837774890213, 48.238773729558375, 62.64545176411288 
-172.559421927134, 0.9837842806798844, 22.294512663111913, 157.67178332366913, 48.19603869712616, 62.64593310246594 
-173.4847846510324, 0.9051467565996522, 22.29451904822347, 156.97535399176763, 48.15627909673415, 62.64638101511103 
-174.4106114211287, 0.8323506915398782, 22.294524485425175, 156.2790768331577, 48.11950005181615, 62.6467954246257 
-175.33686924748244, 0.765417910487834, 22.294529082847514, 155.58293913562505, 48.08570630199872, 62.64717625962916 
-176.26352431825393, 0.7043685226862508, 22.294532940411802, 154.8869283780647, 48.054902202443714, 62.64752345473667 
-177.19054206452995, 0.649220905164296, 22.29453614967399, 154.1910322138689, 48.0270917232375, 62.64783695051685 
-178.11788722647788, 0.599991687577185, 22.294538793681696, 153.4952384544091, 48.002278448828676, 62.64811669345283 
-179.04552392072156, 0.5566957383968089, 22.29454094684456, 152.79953505260323, 47.98046557751587, 62.64836263590678 
-179.9734157088283, 0.51934615249176, 22.29454267481825, 152.1039100865581, 47.96165592098698, 62.64857473608814 
179.0984743332089, 0.48795424013173927, 22.294544034402072, 151.40835174327808, 47.94585190391146, 62.64875295802552 
178.1701835446133, 0.4625295174473476, 22.294545073450564, 150.71284830243152, 47.933055563586464, 62.64889727154245 
177.24174960871377, 0.4430796983721383, 22.294545830798892, 150.01738812016532, 47.923268549638074, 62.64900765223667 
176.31321048120788, 0.42961068808995057, 22.294546336202448, 149.32195961295994, 47.91649212377836, 62.64908408146371 
175.38460431792754, 0.4221265780060839, 22.294546610290578, 148.62655124151541, 47.912727159618974, 62.64912654632399 
174.45596940223845, 0.42062964225662924, 22.294546664534412, 147.9311514946607, 47.911974142541695, 62.64913503965387 
173.52734407220544, 0.4251203357660098, 22.294546501229075, 147.23574887327737, 47.914233169626485, 62.64910956002091 
172.5987666476575, 0.43559729385818446, 22.294546113490096, 146.54033187422954, 47.91950394963706, 62.649050111722794 
171.67027535728624, 0.4520573334227051, 22.294545485264116, 145.84488897429193, 47.92778580306412, 62.64895670479018 
170.74190826591172, 0.4744954556322498, 22.294544591353876, 145.14940861406745, 47.93907766222602, 62.64882935499384 
169.81370320204834, 0.5029048502038916, 22.294543397457403, 144.45387918188578, 47.95337807142683, 62.64866808385527 
168.8856976859032, 0.5372769011918967, 22.294541860221425, 143.75828899767492, 47.97068518717107, 62.64847291866149 
167.95792885793614, 0.57760119429566, 22.294539927308822, 143.06262629679728, 47.99099677843459, 62.64824389248363 
167.03043340810981, 0.6238655256618536, 22.294537537480164, 142.366879213841, 48.01431022699111, 62.6479810441994 
166.10324750595456, 0.6760559121559995, 22.294534620689184, 141.67103576635878, 48.040622527793026, 62.647684418519276 
165.1764067315688, 0.7341566030743455, 22.294531098191868, 140.97508383854452, 48.06993028940588, 62.64735406601632 
164.2499460076736, 0.798150093263139, 22.294526882669388, 140.27901116483932, 48.10222973449502, 62.6469900431601 
163.3238995328342, 0.8680171376085697, 22.294521878364414, 139.5828053134571, 48.13751670036292, 62.64659241235353 
162.3983007159568, 0.9437367668569472, 22.29451598123071, 138.8864536698211, 48.175786639536085, 62.646161241973886 
161.47318211216518, 1.0252863047212797, 22.294509079095825, 138.18994341990057, 48.2170346203993, 62.645696606416834 
160.5485753601541, 1.112641386227139, 22.294501051836722, 137.49326153343893, 48.2612553278757, 62.64519858614392 
159.6245111211123, 1.2057759772476073, 22.294491771567966, 136.79639474706187, 48.30844306415052, 62.644667267733446 
158.70101901930127, 1.3046623951741647, 22.29448110284239, 136.0993295472558, 48.35859174943633, 62.64410274393414 
157.7781275843693, 1.4092713306677913, 22.294468902863805, 135.40205215320526, 48.41169492277753, 62.6435051137223 
156.85586419547442, 1.519571870432131, 22.29445502171165, 134.7045484994781, 48.467745742891424, 62.64287448236136 
155.93425502728235, 1.6355315209483048, 22.294439302577082, 134.0068042185468, 48.526736989043314, 62.642210961464535 
155.01332499789936, 1.7571162331090076, 22.294421582010433, 133.3088046231336, 48.58866106195294, 62.6415146690601 
154.0930977187924, 1.8842904276878203, 22.294401690179427, 132.6105346883671, 48.65350998472893, 62.64078572965894 
153.17359544674238, 2.0170170215781713, 22.29437945113807, 131.91197903373745, 48.72127540382849, 62.640024274324546 
152.2548390378685, 2.1552574547351417, 22.2943546831057, 131.2131219048357, 48.7919485900389, 62.63923044074541 
151.33684790375588, 2.2989717177522424, 22.294327198755877, 130.5139471548645, 48.86552043947723, 62.638404373309065 
150.41963996971015, 2.4481183800046282, 22.294296805514755, 129.81443822590418, 48.94198147460487, 62.63754622317836 
149.50323163515674, 2.6026546182895802, 22.294263305868448, 129.1145781299199, 49.021321845253006, 62.63665614836917 
148.58763773619575, 2.7625362458949048, 22.29422649767914, 128.4143494294932, 49.10353132965497, 62.63573431382971 
147.6728715103161, 2.927717742025681, 22.29418617450934, 127.71373421826188, 49.188599335481605, 62.6347808915212 
146.75894456326677, 3.0981522815200013, 22.294142125953975, 127.01271410105076, 49.276514900875135, 62.63379606049977 
145.84586683807598, 3.273791764784833, 22.294094137979883, 126.31127017367481, 49.36726669547721, 62.632780006999226 
144.93364658620445, 3.4545868478833306, 22.294041993272153, 125.60938300239671, 49.460843021446394, 62.631732924514424 
144.022290340811, 3.640486972706187, 22.29398547158698, 124.90703260301814, 49.5572318144605, 62.630655013885686 
143.1118028921058, 3.831440397159995, 22.293924350110462, 124.20419841958531, 49.65642064469855, 62.62954648338312 
142.20218726475906, 4.027394225307202, 22.293858403822977, 123.50085930268641, 49.75839671779735, 62.62840754879144 
141.2934446973298, 4.228294437393097, 22.29378740586849, 122.79699348731936, 49.86314687577733, 62.62723843349444 
140.38557462367368, 4.43408591969703, 22.293711127928507, 122.09257857030603, 49.97065759793207, 62.626039368559645 
139.4785746562858, 4.6447124941463045, 22.293629340600063, 121.38759148722899, 50.08091500167575, 62.62481059282203 
138.57244057152909, 4.8601169476331725, 22.29354181377717, 120.6820084888648, 50.19390484334281, 62.62355235296752 
137.6671662966968, 5.080241060976941, 22.29344831703551, 119.97580511708794, 50.30961251893335, 62.62226490361528 
136.76274389885427, 5.305025637475179, 22.29334862001936, 119.26895618021742, 50.42802306479829, 62.620948507399056 
135.85916357540094, 5.534410530990111, 22.293242492830903, 118.56143572777651, 50.549121158257456, 62.61960343504717 
134.9564136462939, 5.768334673518125, 22.293129706420782, 117.8532170246367, 50.67289111814402, 62.61822996546099 
134.05448054786976, 6.006736102192733, 22.293010032979776, 117.14427252451287, 50.799316905268164, 62.61682838579166 
133.15334882820164, 6.249551985673344, 22.29288324633094, 116.43457384277778, 50.92838212279266, 62.61539899151474 
132.25300114392587, 6.496718649874567, 22.29274912232171, 115.72409172856095, 51.060070016513215, 62.613942086502846 
131.3534182584729, 6.748171602992876, 22.292607439215374, 115.01279603609628, 51.19436347503526, 62.61245798309571 
130.45457904163584, 7.00384555979012, 22.292457978081668, 114.30065569528064, 51.33124502983978, 62.61094700216766 
129.55646047041023, 7.263674465095231, 22.29230052318554, 113.58763868140468, 51.47069685522935, 62.60940947319234 
128.65903763103825, 7.527591516488277, 22.292134862373995, 112.87371198401465, 51.61270076814611, 62.607845734304114 
127.76228372219238, 7.795529186132951, 22.291960787460265, 112.15884157486268, 51.75723822785269, 62.60625613235655 
126.86617005923253, 8.067419241726213, 22.291778094604837, 111.44299237490138, 51.9042903354667, 62.60464102297704 
125.97066607947342, 8.34319276653596, 22.291586584692844, 110.72612822027568, 52.05383783333958, 62.603000770617975 
125.07573934839967, 8.62278017849987, 22.29138606370742, 110.008211827264, 52.20586110426937, 62.60133574860389 
124.18135556676772, 8.906111248360979, 22.291176343098332, 109.28920475611795, 52.36034017053771, 62.59964633917445 
123.28747857853625, 9.193115116817527, 22.290957240145545, 108.56906737374801, 52.51725469275984, 62.597932933523275 
122.39407037956852, 9.483720310667191, 22.29072857831718, 107.84775881519978, 52.676583968536846, 62.59619593183202 
121.50109112705312, 9.777854757927436, 22.290490187621437, 107.1252369438641, 52.838306930898476, 62.594435743299854 
120.60849914959171, 10.075445801916448, 22.290241904951923, 106.40145831036038, 53.002402146524695, 62.592652786168074 
119.71625095790647, 10.376420214280536, 22.28998357442601, 105.67637811003175, 53.16884781373319, 62.590847487739474 
118.82430125612187, 10.68070420695653, 22.28971504771574, 104.94995013898604, 53.33762176022027, 62.589020284392625 
117.93260295358017, 10.988223443059082, 22.289436184370853, 104.22212674861565, 53.50870144054132, 62.58717162159029 
117.041107177153, 11.298903046685144, 22.28914685213341, 103.4928587985252, 53.682063933316776, 62.58530195388285 
116.1497632840153, 11.612667611629572, 22.288846927243767, 102.76209560779378, 53.857685938149174, 62.58341174490527 
115.25851887485243, 11.929441209007521, 22.288536294737305, 102.02978490449506, 54.03554377223562, 62.58150146736842 
114.36731980747508, 12.249147393781367, 22.28821484873163, 101.29587277339547, 54.21561336665993, 62.57957160304418 
113.47611021082162, 12.571709210191269, 22.287882492703794, 100.560303601748, 54.39787026234764, 62.577622642744366 
112.58483249933117, 12.897049196090473, 22.287539139757197, 99.82302002309451, 54.582289605666524, 62.57565508629309 
111.6934273876772, 13.225089386187882, 22.287184712877785, 99.08396285898787, 54.76884614365425, 62.57366944249254 
110.80183390585437, 13.555751314202242, 22.286819145179173, 98.34307105853975, 54.957514218854215, 62.57166622908212 
109.90998941461828, 13.888956013933564, 22.286442380136418, 97.60028163569771, 55.148267763739554, 62.56964597269079 
109.01782962128233, 14.224624019259364, 22.286054371808028, 96.85552960415119, 55.34108029470444, 62.56760920878236 
108.12528859588076, 14.562675363064514, 22.285655085045942, 96.10874790976133, 55.5359249056007, 62.56555648159375 
107.23229878771437, 14.903029575115095, 22.285244495693256, 95.35986736040748, 55.73277426079691, 62.56348834406615 
106.33879104229894, 15.245605678888335, 22.284822590769224, 94.60881655313713, 55.93160058773586, 62.56140535776867 
105.44469461874463, 15.590322187371878, 22.28438936864149, 93.85552179850448, 56.132375668965075, 62.55930809281499 
104.5499372075986, 15.9370970978476, 22.283944839185125, 93.09990704197654, 56.33507083361421, 62.557197127772255 
