# MEX_intpoint_lon [deg], MEX_intpoint_lat [deg], MEX_intpoint_angle [deg], TGO_intpoint_lon [deg], TGO_intpoint_lat [deg], TGO_intpoint_angle [deg] 
-103.82826961203318, 20.393751823279437, 22.234921997343882, -144.95226403347985, 58.95469430963478, 62.53077118897641 
-104.7392641622303, 20.030645751771356, 22.235496992060266, -145.74089485320488, 58.728757748367514, 62.53302264398475 
-105.64857285650216, 19.66851375906009, 22.23606195998142, -146.5260480873058, 58.50436108320183, 62.53526818319638 
-106.55628489128955, 19.307444841866417, 22.23661674099356, -147.3078373908829, 58.28153955637139, 62.53750712685066 
-107.4624882080788, 18.947527341924843, 22.237161187120556, -148.08637273418663, 58.06032779556541, 62.539738801986786 
-108.36726946357973, 18.588848961441368, 22.23769516254345, -148.86176053240848, 57.84075983217163, 62.54196254263278 
-109.27071400138405, 18.231496777888726, 22.2382185436054, -149.63410377051773, 57.62286911848791, 62.544177689986704 
-110.17290582498082, 17.875557258101423, 22.238731218801913, -150.40350212331882, 57.40668854395299, 62.54638359259006 
-111.07392757201659, 17.52111627163447, 22.239233088756592, -151.17005207090241, 57.19225045044361, 62.54857960649306 
-111.97386048969307, 17.16825910335257, 22.239724066182305, -151.93384700965905, 56.979586646684155, 62.55076509541201 
-112.87278441120472, 16.81707046521807, 22.24020407582806, -152.69497735902328, 56.76872842181109, 62.55293943087862 
-113.77077773312494, 16.467634507248388, 22.240673054411463, -153.45353066411013, 56.559706558133826, 62.55510199238154 
-114.66791739365738, 16.120034827615388, 22.241130950537123, -154.20959169440428, 56.352551343130756, 62.557252167499804 
-115.56427885167642, 15.774354481860746, 22.241577724600962, -154.96324253865671, 56.14729258071715, 62.559389352028425 
-116.45993606648693, 15.430675991203758, 22.242013348680707, -155.71456269613958, 55.94395960182079, 62.56151295009619 
-117.3549614782416, 15.089081349918956, 22.242437806412653, -156.46362916440674, 55.742581274297976, 62.56362237427538 
-118.2494259889595, 14.749652031763173, 22.24285109285495, -157.21051652370093, 55.54318601222259, 62.5657170456842 
-119.14339894409734, 14.412468995432983, 22.243253214337642, -157.95529701814647, 55.34580178457759, 62.56779639408102 
-120.03694811463045, 14.077612689035112, 22.24364418829957, -158.69804063385965, 55.150456123378575, 62.56985985795127 
-120.93013967960724, 13.745163053553938, 22.2440240431125, -159.43881517410622, 54.9571761312563, 62.57190688458669 
-121.82303820914633, 13.41519952530182, 22.244392817892702, -160.17768633162956, 54.765988488524386, 62.57393693015722 
-122.71570664785312, 13.08780103733935, 22.244750562300172, -160.91471775826955, 54.576919459757306, 62.57594945977537 
-123.6082062986356, 12.763046019854398, 22.245097336325923, -161.6499711319877, 54.389994899902035, 62.57794394755359 
-124.5005968069078, 12.441012399489951, 22.24543321006749, -162.3835062214096, 54.2052402599462, 62.57991987665417 
-125.39293614517292, 12.12177759761284, 22.24575826349311, -163.1153809479914, 54.02268059216422, 62.581876739332365 
-126.28528059798361, 11.805418527516458, 22.24607258619475, -163.84565144591366, 53.842340554962, 62.58381403697259 
-127.17768474728304, 11.492011590552432, 22.246376277130537, -164.57437211980135, 53.66424441733986, 62.58573128011778 
-128.07020145813414, 11.181632671187826, 22.24666944435667, -165.30159570036486, 53.48841606299247, 62.58762798849213 
-128.96288186485037, 10.87435713098594, 22.2469522047494, -166.02737329805387, 53.314878994063704, 62.5895036910175 
-129.85577535754499, 10.570259801510597, 22.247224683717434, -166.75175445481108, 53.14365633457357, 62.5913579258232 
-130.74892956912095, 10.269414976155263, 22.247487014904944, -167.47478719401064, 52.9747708335337, 62.59319024025009 
-131.642390362728, 9.971896400900558, 22.247739339885964, -168.19651806866167, 52.8082448677671, 62.59500019084811 
-132.53620181971684, 9.677777264004845, 22.24798180785015, -168.91699220795473, 52.644100444447204, 62.596787343368526 
-133.43040622812495, 9.387130184635074, 22.248214575280638, -169.63625336222492, 52.48235920337054, 62.59855127275009 
-134.32504407173215, 9.100027200446513, 22.24843780562439, -170.35434394640362, 52.32304241897726, 62.60029156310005 
-135.22015401972737, 8.816539754122008, 22.248651668955297, -171.0713050820269, 52.16617100213234, 62.60200780766966 
-136.11577291703176, 8.536738678883548, 22.248856341630663, -171.78717663786603, 52.011765501680514, 62.60369960882475 
-137.01193577532578, 8.260694182990774, 22.249052005941504, -172.5019972692428, 51.859846105787135, 62.605366578011306 
-137.9086757648314, 7.988475833243139, 22.249238849756996, -173.21580445609015, 51.71043264307679, 62.60700833571643 
-138.80602420690317, 7.720152537504556, 22.24941706616379, -173.92863453981548, 51.56354458358091, 62.608624511424686 
-139.70401056748307, 7.4557925262716855, 22.249586853100382, -174.64052275902168, 51.419201039505396, 62.61021474357028 
-140.60266245147866, 7.195463333308772, 22.249748412987252, -175.3515032841393, 51.27742076582875, 62.611778679485184 
-141.50200559812265, 6.939231775374703, 22.249901952353156, -176.06160925102003, 51.13822216074085, 62.61331597534318 
-142.40206387737672, 6.687163931069737, 22.250047681458128, -176.77087279354004, 51.001623265932075, 62.6148262961005 
-143.30285928744124, 6.4393251188318725, 22.250185813913543, -177.4793250752599, 50.867641766742345, 62.61630931543296 
-144.20441195343534, 6.195779874115035, 22.250316566300018, -178.18699632018544, 50.73629499217896, 62.61776471566975 
-145.10674012731073, 5.956591925783557, 22.250440157783338, -178.89391584267202, 50.60759991481224, 62.61919218772444 
-146.00986018906457, 5.72182417175974, 22.250556809729183, -179.60011207651286, 50.48157315055731, 62.62059143102299 
-146.91378664931565, 5.491538653963476, 22.250666745316966, 179.6943873967488, 50.35823095835016, 62.62196215342952 
-147.81853215330818, 5.265796532585425, 22.25077018915346, 178.98955582024743, 50.23758923972612, 62.62330407116932 
-148.72410748640684, 5.0446580597371415, 22.25086736688656, 178.28536723492627, 50.11966353830814, 62.6246169087502 
-149.63052158114522, 4.82818255252412, 22.250958504819856, 177.5817964533377, 50.00446903921244, 62.62590039888177 
-150.53778152588959, 4.61642836558967, 22.25104382952836, 176.87881903408004, 49.8920205683786, 62.62715428239288 
-151.4458925751762, 4.409452863179749, 22.251123567476068, 176.17641125683994, 49.78233259183111, 62.628378308148115 
-152.3548581617804, 4.20731239078096, 22.25119794463569, 175.47455009800953, 49.675419214878865, 62.62957223296256 
-153.26467991057152, 4.010062246385846, 22.251267186111175, 174.77321320685007, 49.57129418125929, 62.63073582151598 
-154.17535765420567, 3.8177566514416292, 22.251331515763482, 174.0723788821747, 49.46997087223333, 62.631868846266066 
-155.0868894507052, 3.6304487215401426, 22.25139115584012, 173.37202604952336, 49.3714623056371, 62.632971087361064 
-155.99927160296983, 3.4481904369087157, 22.251446326608864, 172.67213423880563, 49.275781134896434, 62.63404233255232 
-156.91249868026003, 3.2710326127630154, 22.25149724599623, 171.97268356238624, 49.182939648009636, 62.63508237710658 
-157.8265635416905, 3.09902486958458, 22.25154412923118, 171.27365469359108, 49.09294976650423, 62.63609102371817 
-158.741457361765, 2.932215603386878, 22.251587188494447, 170.57502884561123, 49.00582304437259, 62.63706808242218 
-159.65716965798046, 2.770651956035, 22.251626632573945, 169.87678775078362, 48.92157066699195, 62.63801337050717 
-160.57368832052248, 2.6143797856849873, 22.25166266652694, 169.17891364022836, 48.84020345003338, 62.638926712429516 
-161.49099964406835, 2.463443637409762, 22.25169549134904, 168.48138922382347, 48.76173183836476, 62.639807939728236 
-162.40908836170885, 2.317886714079071, 22.25172530365084, 167.78419767049778, 48.68616590495201, 62.64065689094084 
-163.32793768099353, 2.1777508475613616, 22.25175229534232, 167.0873225888249, 48.613515349763226, 62.641473411520835 
-164.2475293220981, 2.0430764703157873, 22.251776653325727, 166.3907480079005, 48.54378949867981, 62.64225735375651 
-165.16784355810591, 1.9139025874424973, 22.25179855919701, 165.69445835848734, 48.47699730241869, 62.64300857669134 
-166.08885925738957, 1.7902667492592121, 22.251818188956474, 164.99843845441123, 48.41314733546954, 62.64372694604638 
-167.01055392807098, 1.6722050244715574, 22.25183571272897, 164.30267347419422, 48.35224779505069, 62.64441233414475 
-167.9329037645323, 1.5597519740041574, 22.25185129449386, 163.60714894290894, 48.2943065000873, 62.645064619838 
-168.85588369594333, 1.4529406255584731, 22.2518650918253, 162.91185071424206, 48.23933089021523, 62.645683688435206 
-169.77946743676262, 1.3518024489622504, 22.251877255643095, 162.2167649527516, 48.18732802481378, 62.64626943163434 
-170.70362753916493, 1.2563673323742315, 22.25188792997436, 161.52187811630662, 48.13830458207053, 62.64682174745622 
-171.6283354473387, 1.1666635594059942, 22.251897251726586, 160.82717693869657, 48.092266858080905, 62.647340540181574 
-172.5535615535919, 1.082717787221141, 22.251905350472086, 160.13264841239766, 48.0492207659856, 62.64782572029079 
-173.47927525619687, 1.0045550256699287, 22.251912348244304, 159.43827977148607, 48.00917183514816, 62.64827720440658 
-174.40544501889957, 0.9321986175151127, 22.251918359346234, 158.74405847468557, 47.97212521037531, 62.64869491524029 
-175.33203843201065, 0.8656702198023821, 22.251923490171112, 158.04997218853984, 47.93808565118228, 62.6490787815411 
-176.2590222749914, 0.8049897864259322, 22.251927839035776, 157.35600877069817, 47.907057531105146, 62.64942873804861 
-177.1863625804406, 0.7501755519369095, 22.25193149602672, 156.66215625330554, 47.8790448370624, 62.649744725449374 
-178.1140246993836, 0.7012440166392179, 22.251934542859235, 155.9684028264861, 47.85405116876728, 62.65002669033636 
-179.04197336775903, 0.6582099330140008, 22.25193705274969, 155.27473682191138, 47.8320797381926, 62.650274585172724 
-179.9701727739947, 0.6210862935105106, 22.25193909030122, 154.58114669644345, 47.81313336908963, 62.650488368258785 
179.10141337244096, 0.5898843197375567, 22.25194071140286, 153.8876210158445, 47.79721449656229, 62.65066800370333 
178.17282177162934, 0.5646134530857532, 22.25194196314237, 153.19414843854278, 47.78432516669779, 62.65081346139828 
177.24408946305422, 0.5452813468071446, 22.251942883732845, 152.50071769944768, 47.77446703625476, 62.65092471699772 
176.31525375484088, 0.5318938595744176, 22.2519435024531, 151.80731759380419, 47.767641372409706, 62.651001751900665 
175.38635215250767, 0.5244550505380603, 22.251943839602106, 151.11393696107854, 47.76384905256249, 62.651044553237924 
174.4574222873587, 0.522967175895433, 22.251943906467307, 150.42056466886706, 47.763090564201285, 62.6510531138628 
173.5285018446473, 0.52743068698154, 22.251943705307074, 149.72718959681907, 47.7653660048275, 62.65102743234632 
172.599628491641, 0.5378442298869193, 22.251943229347162, 149.03380062056644, 47.77067508194071, 62.65096751297584 
171.67083980571928, 0.554204646603701, 22.25194246279131, 148.34038659565073, 47.779017113083746, 62.65087336575847 
170.7421732026355, 0.5765069776966644, 22.251941380845796, 147.64693634144024, 47.79039102594784, 62.65074500642792 
169.8136658650728, 0.6047444664915862, 22.25193994975808, 146.95343862502816, 47.804795358537405, 62.650582456455695 
168.88535467162345, 0.6389085647690844, 22.25193812686944, 146.25988214510383, 47.82222825939417, 62.65038574306646 
167.95727612631904, 0.678988939947748, 22.251935860681403, 145.5662555157884, 47.84268748787999, 62.6501548992569 
167.0294662888369, 0.7249734837362335, 22.251933090936163, 144.8725472504266, 47.86617041451753, 62.64988996381912 
166.10196070550438, 0.7768483222299888, 22.251929748710502, 144.1787457453255, 47.89267402138807, 62.64959098136753 
165.17479434122106, 0.8345978274240963, 22.25192575652346, 143.48483926343198, 47.922194902584984, 62.64925800236972 
164.2480015124134, 0.8982046301101252, 22.251921028457346, 142.7908159179396, 47.95472926472226, 62.64889108318116 
163.32161582113343, 0.9676496341209196, 22.251915470292076, 142.09666365581577, 47.99027292749591, 62.64849028608347 
162.39567009040826, 1.0429120318838283, 22.251908979652576, 141.40237024123948, 48.02882132429737, 62.648055679326596 
161.47019630094155, 1.1239693212394786, 22.251901446169093, 140.7079232389406, 48.07036950287673, 62.64758733717416 
160.54522552926366, 1.2107973234799112, 22.251892751650217, 140.01330999743007, 48.114912126054165, 62.64708533995259 
159.62078788742082, 1.3033702025569496, 22.251882770268377, 139.31851763211134, 48.162443472477364, 62.646549774103335 
158.6969124642885, 1.4016604854087755, 22.251871368757445, 138.62353300826197, 48.2129574374229, 62.64598073223858 
157.77362726858684, 1.5056390833501618, 22.251858406622475, 137.92834272387492, 48.26644753363903, 62.64537831319979 
156.85095917367087, 1.615275314469342, 22.25184373636089, 137.23293309234796, 48.32290689222753, 62.644742622119516 
155.92893386416068, 1.7305369269723698, 22.25182720369526, 136.53729012500955, 48.38232826356185, 62.64407377048584 
155.00757578447065, 1.8513901234139154, 22.251808647816997, 135.84139951346896, 48.44470401823871, 62.643371876209706 
154.08690808928944, 1.9777995857516104, 22.251787901640892, 135.1452466117784, 48.51002614806015, 62.64263706369472 
153.16695259605632, 2.1097285011598164, 22.251764792069988, 134.4488164183935, 48.57828626704299, 62.641869463909494 
152.24772973947148, 2.247138588537215, 22.251739140270573, 133.75209355791887, 48.64947561245214, 62.64106921446218 
151.32925852807222, 2.3899901256417335, 22.25171076195679, 133.05506226262455, 48.72358504585462, 62.640236459677055 
150.4115565028992, 2.5382419767856184, 22.25167946768468, 132.3577063537184, 48.800605054190115, 62.639371350673194 
149.4946396982707, 2.6918516210227974, 22.251645063155014, 131.66000922235935, 48.88052575085502, 62.63847404544484 
148.57852260467558, 2.850775180760456, 22.25160734952474, 130.96195381039496, 48.96333687679517, 62.63754470894329 
147.66321813379, 3.014967450726636, 22.25156612372652, 130.26352259080713, 49.04902780160374, 62.63658351316028 
146.74873758561606, 3.184381927225771, 22.25152117879596, 129.56469754784825, 49.13758752461973, 62.635590637212644 
145.83509061773412, 3.3589708376144696, 22.251472304206047, 128.86546015684945, 49.229004676022534, 62.63456626742779 
144.92228521665558, 3.5386851699303064, 22.251419286208503, 128.16579136368216, 49.32326751791806, 62.63351059743007 
144.01032767125648, 3.723474702607133, 22.251361908181373, 127.4656715638531, 49.42036394541157, 62.63242382822803 
143.0992225482669, 3.913288034211362, 22.251299950982638, 126.76508058121196, 49.52028148766209, 62.63130616830169 
142.1889726697871, 4.108072613134701, 22.251233193309155, 126.06399764624989, 49.62300730891333, 62.630157833690284 
141.279579092795, 4.3077747671800015, 22.25116141206064, 125.36240137396676, 49.728528209495785, 62.62897904807988 
140.37104109060616, 4.512339732978434, 22.251084382708083, 124.6602697412831, 49.83683062679431, 62.62777004289088 
139.46335613624396, 4.721711685177454, 22.251001879666152, 123.95758006397205, 49.947900636175525, 62.62653105736511 
138.55651988767158, 4.9358337653409485, 22.25091367666913, 123.25430897308605, 50.061723951869084, 62.62526233865199 
137.65052617483676, 5.154648110504466, 22.25081954714983, 122.55043239085067, 50.17828592779664, 62.62396414189426 
136.74536698847587, 5.37809588133045, 22.250719264621026, 121.84592550599821, 50.29757155834208, 62.622636730312315 
135.84103247062023, 5.606117289810276, 22.250612603058855, 121.14076274851078, 50.41956547905665, 62.62128037528723 
134.9375109067481, 5.838651626461949, 22.250499337287735, 120.43491776374329, 50.54425196729193, 62.61989535644249 
134.03478871952, 6.075637286974349, 22.250379243366275, 119.7283633858931, 50.67161494275375, 62.61848196172365 
133.13285046403786, 6.317011798251171, 22.250252098973647, 119.02107161078403, 50.80163796796977, 62.61704048747624 
132.23167882456244, 6.562711843809871, 22.250117683795867, 118.31301356792827, 50.93430424866324, 62.61557123852131 
131.3312546126273, 6.8126732884930465, 22.249975779911654, 117.60415949183148, 51.069596634024954, 62.614074528228684 
130.43155676648325, 7.066831202452205, 22.249826172177116, 116.89447869250098, 51.20749761687572, 62.612550678587404 
129.53256235180964, 7.325119884365828, 22.2496686486089, 116.18393952511872, 51.3479893337106, 62.61100002027339 
128.63424656362736, 7.58747288385633, 22.249503000765298, 115.47250935883618, 51.491053564616664, 62.60942289271396 
127.73658272935006, 7.853823023072323, 22.24932902412475, 114.76015454464842, 51.63667173305498, 62.607819644149025 
126.83954231291017, 8.124102417405345, 22.249146518461306, 114.04684038230172, 51.78482490549792, 62.606190631688776 
125.94309491989756, 8.398242495312246, 22.24895528821639, 113.33253108618675, 51.935493790911956, 62.60453622136758 
125.04720830365056, 8.67617401721663, 22.248755142866695, 112.61718975016865, 52.088658740076006, 62.60285678819386 
124.15184837223997, 8.957827093465164, 22.248545897287357, 111.90077831130148, 52.244299744725275, 62.60115271619594 
123.25697919628936, 9.243131201316649, 22.248327372110104, 111.18325751237334, 52.40239643650938, 62.59942439846331 
122.36256301757692, 9.532015200943938, 22.248099394076014, 110.4645868632258, 52.5629280857542, 62.597672237183396 
121.46856025836651, 9.82440735043081, 22.24786179638212, 109.74472460078856, 52.725873600015376, 62.5958966436736 
120.57492953141863, 10.120235319748355, 22.24761441902172, 109.02362764776801, 52.89121152241191, 62.594098038408205 
119.6816276506346, 10.41942620369682, 22.247357109117633, 108.30125156992571, 53.058920029726764, 62.59227685104012 
118.78860964229092, 10.72190653380163, 22.24708972124827, 107.5775505318795, 53.2289769302622, 62.59043352041743 
117.89582875682356, 11.027602289153618, 22.246812117765764, 106.85247725135781, 53.40135966143545, 62.58856849459405 
117.00323648112672, 11.336438906185688, 22.246524169106, 106.12598295183425, 53.57604528710129, 62.586682230835024 
116.1107825513327, 11.648341287380077, 22.246225754089945, 105.3980173134665, 53.7530104945863, 62.5847751956156 
115.21841496604537, 11.963233808901897, 22.245916760216026, 104.66852842226052, 53.9322315914197, 62.5828478646144 
114.3260800000025, 12.281040327156703, 22.245597083942943, 103.93746271737749, 54.11368450174451, 62.5809007227003 
113.4337222181479, 12.60168418427135, 22.245266630962785, 103.20476493649753, 54.29734476239237, 62.57893426391289 
112.54128449009731, 12.92508821249925, 22.244925316463895, 102.47037805915085, 54.48318751860439, 62.57694899143643 
111.64870800498863, 13.25117473755256, 22.24457306538321, 101.73424324792309, 54.67118751937975, 62.57494541756706 
110.75593228671002, 13.579865580865821, 22.244209812647693, 100.99629978743755, 54.86131911243284, 62.57292406367324 
109.8628952095063, 13.911082060796723, 22.24383550340449, 100.25648502101396, 55.053556238738636, 62.57088546014922 
108.96953301396786, 14.244744992771457, 22.24345009323963, 99.51473428489831, 55.247872426645664, 62.56883014636137 
108.07578032341247, 14.580774688383867, 22.243053548384758, 98.77098083995503, 55.44424078553402, 62.566758670587355 
107.18157016067597, 14.919090953458578, 22.242645845911788, 98.02515580070815, 55.6426339989956, 62.56467158994805 
106.28683396533278, 15.259613085090415, 22.2422269739151, 97.2771880616136, 55.84302431751209, 62.56256947033189 
105.39150161137421, 15.602259867673553, 22.241796931681023, 96.5270042204413, 56.04538355060538, 62.560452886311964 
104.4955014253773, 15.946949567935512, 22.241355729844404, 95.77452849863977, 56.249683058433504, 62.55832242105529 
