# MEX_intpoint_lon [deg], MEX_intpoint_lat [deg], MEX_intpoint_angle [deg], TGO_intpoint_lon [deg], TGO_intpoint_lat [deg], TGO_intpoint_angle [deg] 
-103.9861315929177, 20.43115282282166, 22.326845980559956, -149.9330920177561, 59.07670952102988, 62.52915487111475 
-104.89438370888342, 20.06318139850745, 22.32743215435263, -150.72846650179136, 58.85436640677029, 62.53136523461826 
-105.80094360438837, 19.696210342622507, 22.328007991120035, -151.52030658085815, 58.63352274618006, 62.53356989683013 
-106.70590250009057, 19.330329237655725, 22.328573327813217, -152.3087258663017, 58.41421395219224, 62.535768190184015 
-107.60935030245471, 18.96562700485833, 22.32912801389708, -153.09383435392758, 58.19647481333111, 62.537959453659674 
-108.51137557528787, 18.60219192083058, 22.32967191137, -153.87573854811814, 57.980339512057164, 62.540143032969006 
-109.41206551271898, 18.240111633396026, 22.330204894768254, -154.6545415814284, 57.7658416420996, 62.54231828073468 
-110.31150591349574, 17.87947317672576, 22.330726851155397, -155.4303433298035, 57.55301422482419, 62.54448455666114 
-111.20978115648181, 17.52036298567756, 22.33123768009667, -156.20324052356133, 57.34188972468238, 62.54664122769769 
-112.10697417724465, 17.162866909316946, 22.33173729361835, -156.97332685428273, 57.13250006378532, 62.54878766819427 
-113.00316644563351, 16.807070223589193, 22.33222561615242, -157.7406930777505, 56.92487663564408, 62.55092326004925 
-113.8984379442535, 16.453057643113485, 22.332702584466364, -158.50542711307708, 56.71905031811578, 62.5530473928497 
-114.79286714775088, 16.100913332072178, 22.333168147578398, -159.26761413815805, 56.515051485593126, 62.55515946400404 
-115.68653100283146, 15.750720914169777, 22.33362226665832, -160.02733668158686, 56.312910020473346, 62.55725887886705 
-116.57950490894113, 15.402563481638431, 22.334064914913924, -160.78467471116258, 56.1126553239404, 62.55934505085722 
-117.47186269954578, 15.056523603267784, 22.334496077463484, -161.53970571912024, 55.91431632609323, 62.561417401566636 
-118.36367662395342, 14.712683331439283, 22.334915751194135, -162.29250480420959, 55.71792149545094, 62.56347536086351 
-119.25501732962992, 14.371124208146068, 22.33532394460674, -163.04314475074477, 55.523498847864325, 62.565518366986915 
-120.14595384496434, 14.031927269981551, 22.335720677647135, -163.79169610474472, 55.33107595486196, 62.56754586663475 
-121.03655356244887, 13.69517305208092, 22.336105981524256, -164.53822724727945, 55.14067995145765, 62.56955731504378 
-121.92688222224177, 13.360941591001778, 22.336479898515325, -165.28280446513503, 54.9523375434448, 62.57155217606288 
-122.81700389609105, 13.029312426531014, 22.33684248175825, -166.0254920189054, 54.76607501420204, 62.573529922219244 
-123.70698097159952, 12.700364602407197, 22.337193795031755, -166.76635220861667, 54.58191823103356, 62.575490034777324 
-124.59687413682047, 12.374176665948585, 22.337533912523405, -167.5054454369853, 54.39989265106604, 62.57743200379086 
-125.48674236517674, 12.050826666578994, 22.33786291858585, -168.24283027040843, 54.220023326723755, 62.57935532814853 
-126.37664290070245, 11.73039215324483, 22.338180907481714, -168.97856349778087, 54.042334910801856, 62.58125951561256 
-127.26663124361257, 11.41295017071838, 22.33848798311741, -169.71270018723052, 53.86685166115734, 62.58314408285083 
-128.15676113620873, 11.098577254784026, 22.338784258766207, -170.44529374085977, 53.69359744503616, 62.58500855546284 
-129.04708454913737, 10.78734942630561, 22.339069856781066, -171.17639594757833, 53.52259574305421, 62.586852467999066 
-129.93765166801822, 10.479342184174953, 22.339344908297523, -171.90605703410822, 53.35386965284921, 62.58867536397459 
-130.82851088046866, 10.174630497143012, 22.33960955292699, -172.6343257142406, 53.18744189241965, 62.590476795876356 
-131.71970876355132, 9.873288794537292, 22.339863938441063, -173.3612492364191, 53.02333480316637, 62.59225632516502 
-132.61129007167887, 9.575390955870462, 22.340108220447014, -174.08687342972283, 52.86157035265175, 62.594013522270835 
-133.50329772501206, 9.281010299347441, 22.340342562055156, -174.81124274831885, 52.70217013709079, 62.59574796658436 
-134.3957727983924, 8.99021956927977, 22.340567133538347, -175.5344003144509, 52.54515538358775, 62.597459246441545 
-135.2887545108538, 8.703090922418244, 22.34078211198413, -176.25638796002954, 52.390546952131665, 62.59914695910403 
-136.1822802157617, 8.419695913216605, 22.340987680940067, -176.97724626688495, 52.238365337363334, 62.60081071073428 
-137.07638539162943, 8.140105478041521, 22.34118403005254, -177.69701460574228, 52.08863067012585, 62.602450116366015 
-137.97110363366815, 7.864389918345665, 22.34137135469976, -178.4157311739762, 51.94136271881067, 62.60406479987023 
-138.86646664612536, 7.592618882823277, 22.341549855619242, -179.13343303220026, 51.79658089051013, 62.605654393916545 
-139.76250423547268, 7.324861348569705, 22.341719738530383, -179.85015613974247, 51.65430423198763, 62.60721853993078 
-140.65924430450417, 7.061185601268447, 22.34188121375254, 179.43406461094133, 51.51455143047555, 62.608756888048106 
-141.55671284740853, 6.801659214431882, 22.342034495819224, 178.7191953608688, 51.37734081431134, 62.610269097063004 
-142.45493394588112, 6.54634902772386, 22.342179803088868, 178.00520325210027, 51.24269035342121, 62.61175483437501 
-143.35392976634157, 6.295321124394772, 22.3423173573526, 177.29205639623123, 51.11061765966093, 62.61321377593164 
-144.25372055832554, 6.048640807862205, 22.34244738343971, 176.57972384376592, 50.98113998702279, 62.61464560616792 
-145.15432465411817, 5.8063725774725, 22.342570108821192, 175.8681755543303, 50.85427423171726, 62.616050017943024 
-146.05575846969825, 5.568580103481013, 22.342685763211982, 175.15738236768624, 50.73003693213803, 62.617426712474334 
-146.95803650706245, 5.335326201291183, 22.342794578172313, 174.44731597550816, 50.6084442687184, 62.61877539926864 
-147.86117135799677, 5.1066728049950605, 22.34289678670878, 173.73794889388728, 50.489512063686945, 62.62009579605156 
-148.76517370936432, 4.882680940260003, 22.342992622875737, 173.02925443652768, 50.37325578072992, 62.62138762869438 
-149.670052349975, 4.663410696608965, 22.34308232137725, 172.3212066886023, 50.259690524568036, 62.62265063113949 
-150.5758141791034, 4.44892119914368, 22.34316611717053, 171.61378048123618, 50.14883104045435, 62.62388454532381 
-151.48246421671698, 4.239270579762602, 22.343244245071066, 170.90695136658704, 50.040691713600424, 62.62508912110096 
-152.39000561547752, 4.0345159479274555, 22.3433169393601, 170.20069559349392, 49.93528656853728, 62.62626411616234 
-153.2984396745728, 3.8347133610343995, 22.343384433394924, 169.49499008366604, 49.832629268417456, 62.62740929595683 
-154.2077658554354, 3.63991779444782, 22.343446959222607, 168.78981240838493, 49.73273311426462, 62.628524433610174 
-155.11798179940047, 3.4501831112566843, 22.34350474719749, 168.08514076569438, 49.63561104417647, 62.629609309843445 
-156.02908334735113, 3.265562031815128, 22.34355802560316, 167.3809539580536, 49.54127563248691, 62.63066371289124 
-156.94106456139627, 3.086106103130764, 22.3436070202792, 166.67723137042984, 49.449739088893054, 62.63168743841972 
-157.85391774862038, 2.911865668165588, 22.343651954253378, 165.97395294880846, 49.361013257552386, 62.632680289444735 
-158.76763348694138, 2.7428898351158737, 22.343693047379638, 165.27109917909792, 49.2751096161554, 62.633642076250105 
-159.6822006531057, 2.579226446738534, 22.343730515982482, 164.56865106640984, 49.19203927497872, 62.63457261630636 
-160.59760645284635, 2.42092204979272, 22.343764572508068, 163.86659011469388, 49.11181297592354, 62.63547173419016 
-161.51383645322178, 2.268021864666115, 22.343795425182662, 163.16489830670795, 49.03444109154416, 62.63633926150453 
-162.4308746171492, 2.1205697552560965, 22.34382327767871, 162.4635580843065, 48.959933624071, 62.63717503679998 
-163.34870334013846, 1.9786081991765423, 22.343848328789182, 161.76255232902844, 48.88830020443247, 62.63797890549703 
-164.26730348922692, 1.8421782583612027, 22.343870772110403, 161.06186434296797, 48.819550091279986, 62.63875071980987 
-165.18665444410811, 1.711319550134668, 22.34389079573393, 160.36147782991287, 48.753692170019995, 62.63949033867186 
-166.10673414044066, 1.5860702188218747, 22.34390858194786, 159.6613768767339, 48.69073495185685, 62.64019762766247 
-167.02751911531718, 1.4664669079663908, 22.343924306947912, 158.96154593501066, 48.63068657285037, 62.64087245893612 
-167.9489845548646, 1.3525447332275677, 22.343938140558766, 158.26196980288015, 48.5735547929914, 62.641514711153356 
-168.87110434394148, 1.2443372560251744, 22.34395024596588, 157.56263360709326, 48.51934699529887, 62.642124269413756 
-169.7938511178891, 1.1418764579995446, 22.34396077945833, 156.86352278526692, 48.468070184941396, 62.64270102519163 
-170.7171963162876, 1.0451927163534176, 22.34396989018282, 156.16462306831838, 48.41973098838674, 62.64324487627379 
-171.6411102386596, 0.9543147801403612, 22.343977719909326, 155.46592046306966, 48.374335652581564, 62.6437557267004 
-172.56556210205713, 0.869269747562566, 22.343984402808623, 154.76740123501062, 48.331890044164695, 62.64423348670796 
-173.49052010046165, 0.7900830443388335, 22.343990065242057, 154.06905189120826, 48.29239964871598, 62.644678072675795 
-174.41595146591825, 0.7167784032010242, 22.343994825563673, 153.37085916335226, 48.25586957004356, 62.64508940707506 
-175.34182253131985, 0.6493778445748931, 22.343998793935242, 152.67280999092517, 48.22230452951145, 62.64546741842111 
-176.26809879475041, 0.5879016584981059, 22.34400207215413, 151.97489150448737, 48.191708865409744, 62.64581204122887 
-177.19474498529001, 0.5323683878254607, 22.34400475349442, 151.27709100906645, 48.16408653236932, 62.646123215971635 
-178.12172513017845, 0.4827948127679075, 22.344006922561526, 150.57939596764103, 48.13944110082267, 62.64640088904321 
-179.04900262322943, 0.439195936808548, 22.344008655160323, 149.8817939847101, 48.11777575651273, 62.64664501272347 
-179.97654029438164, 0.40158497403521276, 22.344010018177112, 149.18427278993755, 48.09909330005091, 62.646855545147396 
179.09569951973168, 0.36997333792531517, 22.34401106947556, 148.48682022186378, 48.08339614652589, 62.64703245027801 
178.16775490431664, 0.34437063161479525, 22.34401185780667, 147.7894242116744, 48.070686325163955, 62.64717569788248 
177.23966429418226, 0.324784639678802, 22.344012422732998, 147.0920727670182, 48.06096547904225, 62.64728526351232 
176.31146640086297, 0.3112213214476117, 22.344012794567178, 146.39475395586493, 48.054234864855566, 62.64736112848713 
175.38320013923195, 0.30368480587681446, 22.344012994324807, 145.69745589039476, 48.050495352737286, 62.64740327988228 
174.4549045537395, 0.3021773879865467, 22.344013033691798, 145.0001667109108, 48.04974742613521, 62.6474117105202 
173.52661874441173, 0.3066995268800014, 22.344012915006243, 144.30287456976617, 48.05199118174234, 62.64738641896558 
172.59838179274664, 0.3172498453467929, 22.34401263125478, 143.6055676152975, 48.057226329483086, 62.64732740952449 
171.67023268764427, 0.33382513105247685, 22.344012166083477, 142.90823397575627, 48.06545219255478, 62.64723469224723 
170.74221025150848, 0.35642033931067046, 22.344011493823224, 142.21086174322957, 48.07666770752437, 62.64710828293503 
169.81435306665554, 0.38502859742989465, 22.344010579529655, 141.51343895754232, 48.09087142448011, 62.646948203150465 
168.8866994021658, 0.41964121062264215, 22.344009379037402, 140.81595359013178, 48.108061507237764, 62.64675448023195 
167.9592871413099, 0.4602476694597348, 22.34400783902875, 140.1183935278866, 48.12823573360068, 62.646527147311744 
167.0321537096822, 0.5068356588487141, 22.344005897116606, 139.42074655694114, 48.151391495673124, 62.646266243337585 
166.10533600416684, 0.5593910685106718, 22.344003481941474, 138.72300034641688, 48.177525800225816, 62.64597181309844 
165.17887032286254, 0.6178980049257218, 22.34400051328261, 138.02514243210157, 48.20663526911268, 62.64564390725337 
164.2527922960856, 0.682338804713466, 22.34399690218291, 137.3271602000573, 48.2387161397376, 62.64528258236429 
163.32713681856708, 0.7526940494106228, 22.343992551087634, 136.6290408701482, 48.27376426556978, 62.64488790093217 
162.40193798295508, 0.82894258160456, 22.343987353996543, 135.93077147947838, 48.311775116706194, 62.6444599314365 
161.4772290147283, 0.9110615223776922, 22.34398119662938, 135.23233886573024, 48.35274378047931, 62.64399874837826 
160.55304220862044, 0.9990262900144854, 22.343973956604515, 134.53372965039344, 48.39666496210853, 62.64350443232604 
159.62940886665004, 1.0928106199196357, 22.34396550363039, 133.83493022187395, 48.44353298539294, 62.64297706996535 
158.70635923784315, 1.1923865856929716, 22.343955699709568, 133.13592671847292, 48.49334179344367, 62.64241675415102 
157.78392245973072, 1.2977246213040372, 22.34394439935515, 132.43670501122426, 48.54608494945298, 62.641823583962285 
156.86212650169466, 1.408793544306688, 22.343931449819216, 131.7372506865798, 48.601755637498194, 62.64119766476095 
155.94099811023045, 1.5255605800319498, 22.343916691333057, 131.03754902893036, 48.66034666337741, 62.64053910825222 
155.02056275618702, 1.647991386695252, 22.343899957358754, 130.3375850029502, 48.72185045547435, 62.63984803254774 
154.10084458403657, 1.7760500813523776, 22.343881074851918, 129.63734323575324, 48.786259065649396, 62.63912456223158 
153.18186636322108, 1.9096992666371695, 22.343859864535155, 128.93680799884729, 48.8535641701537, 62.63836882842804 
152.26364944161358, 2.048900058212456, 22.34383614118191, 128.23596318987268, 48.923757070563035, 62.63758096887168 
151.34621370112646, 2.1936121128649346, 22.34380971391031, 127.53479231411217, 48.996828694728094, 62.63676112797953 
150.4295775154903, 2.3437936571737805, 22.34378038648661, 126.83327846575634, 49.072769597737434, 62.63590945692475 
149.5137577102209, 2.4994015166823282, 22.343747957637927, 126.13140430891028, 49.15156996288944, 62.63502611371224 
148.5987695247846, 2.660391145501893, 22.34371222137365, 125.42915205832507, 49.23321960266951, 62.634111263255434 
147.68462657696492, 2.82671665627662, 22.343672967315353, 124.7265034598379, 49.31770795972799, 62.63316507745458 
146.77134082942786, 2.9983308504385655, 22.343629981034546, 124.02343977050363, 49.40502410785505, 62.63218773527607 
145.85892255847526, 3.1751852486825287, 22.343583044397956, 123.31994173839968, 49.49515675294775, 62.631179422832574 
144.9473803249711, 3.357230121590668, 22.343531935919867, 122.61598958208593, 49.588094233964846, 62.63014033346409 
144.0367209474184, 3.544414520337909, 22.34347643112097, 121.91156296969969, 49.68382452386453, 62.62907066781941 
143.12694947715949, 3.7366863074098986, 22.34341630289336, 121.2066409976661, 49.7823352305202, 62.62797063393788 
142.21806917566695, 3.933992187266652, 22.343351321871108, 120.50120216900198, 49.88361359760897, 62.626840447331396 
141.3100814938873, 4.136277736886077, 22.34328125680597, 119.79522437119175, 49.98764650546784, 62.625680331066434 
140.40298605359513, 4.34348743612337, 22.34320587494768, 119.08868485361185, 50.09442047191188, 62.62449051584548 
139.49678063071136, 4.555564697823498, 22.343124942428478, 118.38156020448022, 50.203921653008635, 62.6232712400883 
138.5914611405346, 4.772451897626151, 22.3430382246511, 117.67382632730472, 50.31613584380311, 62.622022750012455 
137.6870216248317, 4.994090403403981, 22.342945486679984, 116.96545841680546, 50.43104847898704, 62.620745299712894 
136.78345424073066, 5.220420604277217, 22.342846493634983, 116.25643093428303, 50.548644633506115, 62.61943915124025 
135.88074925135518, 5.451381939149743, 22.342741011087227, 115.54671758240403, 50.668909023098884, 62.6181045746783 
134.97889501813893, 5.686912924713651, 22.342628805456446, 114.83629127937458, 50.79182600476019, 62.61674184821934 
134.07787799475528, 5.926951182871823, 22.342509644409343, 114.12512413247039, 50.91737957712259, 62.61535125823813 
133.17768272259585, 6.1714334675300515, 22.342383297258504, 113.41318741089131, 51.045553380748125, 62.613933099363905 
132.27829182773127, 6.420295690712742, 22.34224953536116, 112.70045151790592, 51.17633069832338, 62.61248767454999 
131.37968601928574, 6.673472947958366, 22.342108132517517, 111.98688596225176, 51.30969445474969, 62.611015295141115 
130.4818440891565, 6.930899542953474, 22.341958865367918, 111.27245932875357, 51.4456272171209, 62.609516280938365 
129.58474291301013, 7.19250901136611, 22.3418015137884, 110.55713924812167, 51.584111194580004, 62.60799096026079 
128.68835745248606, 7.458234143842299, 22.34163586128414, 109.84089236589017, 51.725128238046516, 62.60643967000444 
127.79266075854038, 7.7280070081310965, 22.34146169538024, 109.12368431045329, 51.86865983980528, 62.60486275569799 
126.89762397586192, 8.001758970306673, 22.34127880800935, 108.40547966015622, 52.01468713294779, 62.60326057155484 
126.00321634829498, 8.279420715057839, 22.34108699589552, 107.68624190939511, 52.16319089065647, 62.601633480521706 
125.10940522520428, 8.560922265017778, 22.340886060934015, 106.9659334336787, 52.31415152532182, 62.59998185432322 
124.21615606871914, 8.8461929991094, 22.340675810566317, 106.24451545360229, 52.46754908748248, 62.598306073502485 
123.32343246179687, 9.135161669883502, 22.340456058149904, 105.52194799768257, 52.623363264577264, 62.59660652745739 
122.43119611704623, 9.427756419829553, 22.340226623322497, 104.79818986399958, 52.781573379498354, 62.5948836144725 
121.53940688625651, 9.72390479664082, 22.339987332359957, 104.07319858058993, 52.94215838893393, 62.593137741746226 
120.64802277057821, 10.023533767418, 22.33973801852769, 103.34693036453287, 53.105096881488585, 62.59136932541317 
119.75699993130692, 10.326569731797132, 22.339478522424802, 102.61934007966892, 53.27036707556881, 62.589578790561404 
118.8662927012229, 10.632938533990188, 22.339208692320778, 101.8903811928873, 53.43794681702078, 62.587766571244586 
117.97585359644489, 10.942565473728173, 22.338928384484092, 101.16000572891684, 53.60781357650708, 62.585933110488845 
117.08563332875809, 11.255375316098872, 22.33863746350236, 100.42816422355175, 53.77994444660799, 62.58407886029366 
116.19558081838207, 11.571292300273141, 22.3383358025936, 99.6948056752407, 53.95431613863329, 62.5822042816276 
115.30564320714777, 11.89024014711532, 22.338023283908164, 98.95987749496568, 54.130904979128694, 62.58030984441771 
114.4157658720567, 12.212142065675463, 22.337699798820932, 98.22332545433294, 54.30968690606161, 62.57839602753314 
113.52589243920123, 12.536920758562362, 22.337365248213448, 97.48509363179643, 54.49063746466915, 62.57646331876245 
112.63596479802841, 12.864498426198551, 22.337019542745487, 96.74512435693009, 54.67373180295143, 62.57451221478464 
111.74592311593524, 13.194796769959517, 22.336662603115723, 96.00335815266297, 54.85894466679179, 62.572543221133756 
110.85570585318837, 13.527736994201662, 22.336294360311314, 95.25973367538701, 55.04625039468505, 62.57055685215676 
109.96524977816638, 13.863239807184366, 22.335914755845675, 94.51418765284497, 55.23562291205415, 62.5685536309648 
109.07448998292836, 14.201225420893687, 22.33552374198451, 93.76665481970177, 55.42703572513413, 62.56653408937768 
108.18335989911742, 14.541613549776496, 22.335121281959594, 93.01706785069912, 55.6204619144021, 62.56449876786123 
107.29179131421503, 14.884323408395165, 22.334707350169996, 92.2653572912907, 55.81587412753013, 62.562448215457735 
106.39971438816605, 15.22927370801492, 22.334281932370427, 91.51145148565017, 56.01324457183753, 62.56038298970922 
105.50705767040206, 15.576382652136855, 22.333845025846667, 90.75527650194228, 56.21254500621734, 62.558303656573464 
104.61374811729578, 15.925567930991756, 22.333396639577426, 89.99675605474233, 56.41374673251087, 62.5562107903326 
