# MEX_intpoint_lon [deg], MEX_intpoint_lat [deg], MEX_intpoint_angle [deg], TGO_intpoint_lon [deg], TGO_intpoint_lat [deg], TGO_intpoint_angle [deg] 
-104.43729296526155, 20.53582846107716, 22.595992804405235, -165.8835019057007, 59.11439206566783, 62.52977165505641 
-105.33735204491745, 20.15384264579355, 22.596611804340593, -166.68090781428214, 58.89315221386402, 62.53196952353246 
-106.23570582794005, 19.77293496000621, 22.597219538484172, -167.47476291190642, 58.673399479521244, 62.53416175533931 
-107.13245137253809, 19.39319653648418, 22.59781583519451, -168.2651807609471, 58.4551693225188, 62.53634768662017 
-108.02768424609205, 19.014717831876467, 22.598400536470333, -169.05227133075408, 58.238496575577166, 62.53852665998772 
-108.92149850123043, 18.63758864662231, 22.598973497970146, -169.83614111999395, 58.02341546262041, 62.54069802470956 
-109.81398665320724, 18.26189814399626, 22.599534589015313, -170.61689327460135, 57.80995961613237, 62.54286113688599 
-110.70523965844328, 17.88773486825331, 22.600083692576682, -171.39462770147526, 57.59816209355433, 62.545015359620116 
-111.59534689410532, 17.515186761841004, 22.600620705244925, -172.1694411780543, 57.388055392768734, 62.54716006318044 
-112.48439613860522, 17.14434118164798, 22.601145537184525, -172.94142745790546, 57.179671466712556, 62.54929462515611 
-113.37247355291153, 16.775284914260045, 22.601658112071632, -173.71067737245986, 56.97304173716068, 62.551418430604166 
-114.25966366257448, 16.408104190197033, 22.602158367015868, -174.47727892902805, 56.76819710771883, 62.553530872189505 
-115.14604934037428, 16.042884697105315, 22.602646252466172, -175.24131740522614, 56.565167976062995, 62.55563135031726 
-116.0317117895112, 15.679711591882382, 22.60312173210096, -176.00287543994105, 56.36398424546082, 62.557719273257526 
-116.91673052726406, 15.31866951171199, 22.603584782702654, -176.76203312096186, 56.164675335608806, 62.55979405726269 
-117.801183369052, 14.959842583989145, 22.604035394016904, -177.51886806940098, 55.96727019281736, 62.56185512667739 
-118.68514641284172, 14.603314435116614, 22.60447356859657, -178.27345552102608, 55.77179729957471, 62.563901914040855 
-119.56869402385125, 14.249168198155163, 22.604899321630842, -179.02586840462155, 55.57828468351849, 62.565933860182035 
-120.45189881950647, 13.897486519311913, 22.60531268075967, -179.77617741749347, 55.38675992584329, 62.567950414307624 
-121.33483165461645, 13.548351563252039, 22.605713685873827, 179.4755489017688, 55.197250169170474, 62.56995103408251 
-122.21756160673822, 13.20184501722088, 22.606102388900712, 178.7292441031671, 55.009782124905804, 62.571935185703445 
-123.1001559617103, 12.858048093964417, 22.606478853576625, 177.98484375769846, 54.824382080109125, 62.57390234396552 
-123.98268019933927, 12.517041533438041, 22.60684315520523, 177.24228539218794, 54.64107590389906, 62.57585199232182 
-124.86519797923147, 12.178905603294336, 22.607195380403066, 176.50150842645002, 54.459889053414926, 62.57778362293622 
-125.74777112676706, 11.843720098142601, 22.60753562683225, 175.76245411268465, 54.28084657935692, 62.57969673672932 
-126.63045961922018, 11.51156433757388, 22.60786400292063, 175.02506547701475, 54.10397313112478, 62.58159084341809 
-127.51332157203501, 11.182517162946885, 22.608180627570018, 174.28928726307618, 53.929292961574106, 62.583465461548876 
-128.3964132252725, 10.856656932931973, 22.608485629852687, 173.55506587757515, 53.756829931408795, 62.585320118524024 
-129.27978893024883, 10.534061517811459, 22.608779148696676, 172.82234933772898, 53.586607513227314, 62.58715435062245 
-130.16350113639132, 10.214808292536734, 22.60906133256022, 172.09108722051172, 53.41864879523962, 62.58896770301402 
-131.04760037834296, 9.898974128543832, 22.60933233909588, 171.36123061362687, 53.252976484670846, 62.590759729768166 
-131.93213526335157, 9.586635384331382, 22.609592334804727, 170.6327320681336, 53.089612910867494, 62.592529993856765 
-132.8171524589844, 9.277867894806176, 22.60984149468098, 169.90554555265538, 52.92858002812069, 62.59427806715122 
-133.70269668121335, 8.972746959403949, 22.610080001847788, 169.17962640910235, 52.76989941822094, 62.59600353041441 
-134.58881068292052, 8.67134732899465, 22.610308047184432, 168.4549313098418, 52.613592292758135, 62.597705973287134 
-135.47553524287727, 8.373743191583612, 22.610525828945512, 167.73141821625316, 52.459679495179735, 62.59938499426975 
-136.36290915525532, 8.080008156822075, 22.61073355237271, 167.009046338607, 52.30818150262003, 62.60104020069874 
-137.2509692197301, 7.790215239342888, 22.61093142929946, 166.28777609720964, 52.159118427512325, 62.60267120871852 
-138.1397502322413, 7.504436840939178, 22.611119677749272, 165.56756908475694, 52.01251001899604, 62.60427764324899 
-139.02928497647844, 7.222744731606206, 22.611298521528056, 164.84838802984365, 51.868375664129665, 62.60585913794852 
-139.91960421616145, 6.945210029469242, 22.611468189811045, 164.13019676157649, 51.72673438892067, 62.60741533517281 
-140.81073668819033, 6.6719031796221735, 22.611628916724968, 163.41296017524138, 51.587604859182534, 62.60894588593006 
-141.70270909673778, 6.402893931904676, 22.61178094092581, 162.6966441989768, 51.451005381229145, 62.61045044983205 
-142.59554610836312, 6.138251317647881, 22.611924505172965, 161.9812157614084, 51.31695390241615, 62.61192869504206 
-143.4892703482263, 5.878043625421193, 22.61205985590008, 161.26664276019974, 51.18546801153863, 62.61338029821912 
-144.3839023974813, 5.622338375815596, 22.612187242783406, 160.55289403147825, 51.05656493909406, 62.61480494445932 
-145.27946079193094, 5.37120229530132, 22.612306918308093, 159.8399393200951, 50.93026155741934, 62.61620232723436 
-146.17596202202375, 5.12470128920054, 22.612419137332953, 159.12774925068123, 50.80657438071027, 62.61757214832695 
-147.07342053427536, 4.882900413818252, 22.612524156654402, 158.41629529946098, 50.6855195649316, 62.618914117764355 
-147.97184873419522, 4.645863847777473, 22.61262223457009, 157.7055497667894, 50.567112907625315, 62.620227953748945 
-148.87125699079974, 4.413654862607177, 22.6127136304427, 156.99548575037772, 50.451369847625124, 62.621513382587295 
-149.77165364279142, 4.186335792634435, 22.612798604264675, 156.2860771191749, 50.338305464684055, 62.622770138617184 
-150.6730450064824, 3.963968004234515, 22.612877416224375, 155.5772984878737, 50.227934479022515, 62.62399796413279 
-151.57543538553813, 3.7466118644955126, 22.61295032627405, 154.86912519201118, 50.12027125080356, 62.62519660930873 
-152.47882708261585, 3.534326709356335, 22.613017593700555, 154.16153326363485, 50.01532977954197, 62.626365832122886 
-153.383220412968, 3.3271708112795833, 22.61307947669905, 153.45449940750666, 49.913123703453586, 62.627505398277876 
-154.28861372007918, 3.12520134652304, 22.613136231950445, 152.7480009778185, 49.813666298751095, 62.62861508112216 
-155.1950033934001, 2.9284743620756446, 22.613188114203062, 152.04201595539354, 49.716970478892186, 62.62969466157034 
-156.10238388823905, 2.737044742326192, 22.61323537585902, 151.33652292534939, 49.62304879378587, 62.630743928023 
-157.01074774786562, 2.5509661755348665, 22.613278266566088, 150.63150105519944, 49.53191342896262, 62.63176267628656 
-157.9200856278775, 2.370291120179419, 22.613317032815285, 149.92693007337002, 49.44357620471364, 62.63275070949306 
-158.8303863228748, 2.195070771249819, 22.61335191754493, 149.2227902481121, 49.35804857520445, 62.63370783801999 
-159.74163679548167, 2.025355026566367, 22.613383159751585, 148.51906236678664, 49.275341627567975, 62.63463387941105 
-160.65382220774737, 1.86119245319778, 22.613410994108563, 147.81572771550424, 49.19546608098172, 62.63552865829674 
-161.56692595495366, 1.7026302540569245, 22.613435650592173, 147.1127680590996, 49.118432285733924, 62.63639200631647 
-162.48092970184734, 1.549714234752503, 22.61345735411658, 146.41016562142326, 49.04425022228317, 62.63722376204123 
-163.3958134213109, 1.4024887707759905, 22.6134763241775, 145.70790306593264, 48.972929500315466, 62.63802377089753 
-164.3115554354751, 1.2609967751032858, 22.613492774505332, 145.0059634765659, 48.90447935780353, 62.63879188509266 
-165.22813245927114, 1.125279666290925, 22.613506912728067, 144.3043303388827, 48.83890866007162, 62.639527963541546 
-166.1455196464107, 0.9953773371464529, 22.613518940044617, 143.60298752145573, 48.77622589887028, 62.64023187179512 
-167.06369063777524, 0.8713281240522992, 22.613529050908777, 142.90191925749943, 48.716439191464296, 62.64090348197064 
-167.98261761218652, 0.7531687770218659, 22.61353743272434, 142.20111012672, 48.65955627973751, 62.64154267268405 
-168.9022713395227, 0.6409344305655492, 22.61354426555186, 141.50054503737474, 48.605584529317866, 62.64214932898417 
-169.82262123613543, 0.5346585754433729, 22.613549721827233, 140.80020920852579, 48.554530928725754, 62.64272334228964 
-170.7436354225155, 0.434373031379214, 22.61355396609271, 140.1000881524769, 48.50640208854877, 62.64326461032799 
-171.66528078314516, 0.34010792081007846, 22.613557154740487, 139.40016765738025, 48.461204240645664, 62.64377303707731 
-172.587523028468, 0.251891643741615, 22.613559435769396, 138.70043377000172, 48.418943237382315, 62.644248532710556 
-173.51032675889837, 0.16975085377880342, 22.61356094855489, 138.00087277863275, 48.379624550902065, 62.6446910135429 
-174.43365553078436, 0.09371043539815145, 22.613561823632622, 137.3014711961387, 48.343253272433046, 62.64510040198187 
-175.35747192423088, 0.023793482524765895, 22.6135621824961, 136.60221574313147, 48.3098341116345, 62.64547662648021 
-176.28173761268155, -0.03997872152546798, 22.61356213740838, 135.90309333125765, 48.2793713959844, 62.6458196214926 
-177.2064134341509, -0.09758672268175421, 22.613561791228328, 135.2040910465909, 48.25186907021002, 62.646129327434664 
-178.13145946399194, -0.14901291327927285, 22.61356123725149, 134.50519613311891, 48.227330695763484, 62.64640569064633 
-179.05683508907708, -0.19424154769571506, 22.613560559065924, 133.80639597631625, 48.205759450343734, 62.64664866335759 
-179.98249908326522, -0.2332587564184755, 22.61355983042303, 133.1076780867922, 48.187158127466375, 62.64685820365846 
179.09159031597858, -0.26605255850167936, 22.613559115123717, 132.40903008400602, 48.17152913608279, 62.6470342754721 
178.16547532994824, -0.2926128723767598, 22.61355846691998, 131.71043968003949, 48.158874500249496, 62.64717684853143 
177.2391985601896, -0.3129315249850146, 22.613557929431913, 131.0118946634185, 48.14919585884895, 62.64728589835996 
176.31280290926696, -0.32700225920532944, 22.613557536080524, 130.31338288297488, 48.14249446536235, 62.64736140625554 
175.38633150095245, -0.33482073955525526, 22.613557310036164, 129.6148922317398, 48.138771187695326, 62.64740335927817 
174.45982759999066, -0.33638455614860013, 22.613557264182834, 128.91641063086016, 48.13802650805701, 62.6474117502419 
173.53333453159138, -0.33169322689792713, 22.613557401098323, 128.2179260135299, 48.14026052289257, 62.647386577709646 
172.60689560080604, -0.32074819795534365, 22.61355771305025, 127.51942630892756, 48.1454729428698, 62.64732784599265 
171.6805540119431, -0.30355284239038516, 22.613558182007946, 126.82089942615147, 48.153663092919565, 62.64723556515303 
170.7543527881772, -0.2801124571088382, 22.613558779670317, 126.12233323814478, 48.16482991232995, 62.647109751010575 
169.82833469150717, -0.250434258021614, 22.613559467509354, 125.42371556560147, 48.178971954894045, 62.646950425152845 
168.9025421432152, -0.2145273734779344, 22.613560196829635, 124.72503416084493, 48.196087389110666, 62.646757614949415 
167.97701714497794, -0.1724028359821487, 22.613560908843382, 124.02627669167087, 48.21617399843776, 62.646531353569586 
167.0518012007776, -0.12407357221852748, 22.613561534761153, 123.3274307251454, 48.23922918159731, 62.64627168000364 
166.12693523975716, -0.06955439141317396, 22.61356199589802, 122.62848371135, 48.26524995293133, 62.64597863908793 
165.2024595401599, -0.00886197206717181, 22.61356220379511, 121.92942296706421, 48.29423294280749, 62.64565228153357 
164.27841365448936, 0.05798515290075023, 22.613562060356255, 121.23023565937741, 48.326174398073405, 62.64529266395835 
163.35483633601913, 0.13096661255873474, 22.61356145799968, 120.5309087892194, 48.36107018255802, 62.64489984892221 
162.43176546677853, 0.21006021586665968, 22.613560279824465, 119.83142917480171, 48.39891577761883, 62.64447390496621 
161.50923798713126, 0.29524197102978483, 22.61355839979163, 119.13178343495893, 48.439706282733, 62.644014906654505 
160.58728982706003, 0.38648610624650054, 22.613555682919404, 118.43195797238042, 48.48343641613055, 62.643522934619774 
159.6659558392613, 0.4837650917913985, 22.613551985492766, 117.73193895672203, 48.530100515467936, 62.6429980756115 
158.74526973414774, 0.5870496633719614, 22.613547155286597, 117.0317123075877, 48.57969253853945, 62.642440422547324 
157.82526401684842, 0.6963088466938864, 22.61354103180245, 116.33126367736939, 48.63220606402431, 62.64185007456739 
156.90596992628855, 0.8115099831675182, 22.613533446518385, 115.63057843393456, 48.68763429226714, 62.64122713709113 
155.98741737642223, 0.932618756685065, 22.613524223151785, 114.92964164314944, 48.745970046088914, 62.64057172187705 
155.06963489968393, 1.0595992213965255, 22.61351317793454, 114.2284380512259, 48.807205771625725, 62.6398839470847 
154.15264959271602, 1.1924138304098055, 22.613500119900465, 113.52695206687963, 48.871333539192555, 62.639163937339156 
153.23648706442003, 1.3310234653393223, 22.613484851184403, 112.82516774328644, 48.93834504416872, 62.638411823797746 
152.3211713863732, 1.4753874666258322, 22.613467167332708, 112.12306875982344, 49.0082316079019, 62.637627744218705 
151.40672504564068, 1.6254636645491591, 22.61344685762469, 111.42063840358084, 49.08098417862721, 62.63681184303185 
150.4931689000075, 1.7812084108548683, 22.61342370540454, 110.71785955063017, 49.15659333239799, 62.63596427141105 
149.58052213564554, 1.9425766109152793, 22.61339748842336, 110.01471464703347, 49.23504927402407, 62.63508518734812 
148.66880222722168, 2.1095217563451767, 22.6133679791908, 109.31118568957781, 49.316341838014296, 62.63417475572829 
147.7580249004476, 2.2819959579923745, 22.61333494533587, 108.60725420621876, 49.40046048951852, 62.63323314840682 
146.84820409706157, 2.459949979223889, 22.613298149976423, 107.90290123621578, 49.487394325265356, 62.63226054428685 
145.93935194222715, 2.643333269428806, 22.613257352096824, 107.19810730994153, 49.57713207449113, 62.63125712939792 
145.03147871432557, 2.832093997659782, 22.613212306933328, 106.49285242834695, 49.66966209985527, 62.630223096975165 
144.12459281711233, 3.0261790863361617, 22.61316276636667, 105.78711604206202, 49.76497239833765, 62.629158647539406 
143.21870075420182, 3.2255342449328404, 22.6131084793212, 105.08087703011311, 49.8630506021127, 62.62806398897709 
142.31380710583792, 3.430104003580556, 22.613049192170326, 104.3741136782348, 49.963883979395476, 62.6269393366206 
141.40991450790327, 3.639831746504624, 22.612984649147446, 103.66680365675501, 50.06745943525408, 62.62578491332841 
140.50702363311348, 3.854659745231257, 22.612914592761932, 102.95892399803024, 50.1737635123831, 62.62460094956508 
139.60513317433978, 4.074529191492177, 22.61283876421972, 102.25045107340719, 50.28278239183238, 62.623387683480495 
138.7042398299968, 4.299380229760606, 22.612756903847767, 101.54136056968561, 50.39450189368526, 62.622145360988725 
137.80433829143035, 4.529151989353632, 22.61266875152192, 100.83162746505683, 50.50890747768014, 62.62087423584569 
136.9054212322357, 4.763782616038379, 22.612574047097663, 100.1212260044906, 50.625984243769096, 62.61957456972606 
136.00747929943284, 5.003209303081931, 22.612472530843082, 99.41012967454203, 50.745716932607074, 62.61824663229843 
135.11050110642537, 5.247368321687063, 22.61236394387353, 98.69831117754936, 50.868089925964924, 62.6168907012993 
134.2144732276638, 5.496195050758806, 22.61224802858744, 97.9857424051913, 50.99308724705928, 62.615507062605026 
133.31938019493595, 5.749624005949072, 22.612124529102648, 97.27239441137277, 51.1206925607921, 62.61409601030221 
132.4252044952028, 6.007588867929611, 22.6119931916927, 96.55823738440455, 51.250889173892425, 62.61265784675538 
131.5319265698998, 6.270022509845711, 22.61185376522258, 95.84324061844288, 51.38366003495264, 62.61119288267283 
130.63952481562112, 6.536857023906334, 22.61170600158324, 95.12737248415189, 51.51898773435128, 62.60970143716941 
129.74797558610572, 6.808023747068472, 22.611549656124335, 94.41060039855172, 51.65685450405406, 62.60818383782684 
128.8572531954436, 7.08345328577672, 22.611384488084738, 93.69289079401179, 51.79724221728468, 62.606640420750864 
127.96732992242212, 7.363075539721229, 22.611210261020073, 92.97420908634903, 51.94013238805648, 62.60507153062517 
127.07817601593216, 7.646819724580233, 22.611026743226844, 92.2545196419874, 52.0855061705557, 62.60347752076194 
126.18975970135654, 7.934614393715762, 22.610833708162513, 91.5337857441339, 52.23334435836706, 62.601858753148726 
125.30204718786442, 8.226387458793665, 22.61063093486109, 90.81196955792502, 52.383627383531525, 62.60021559849156 
124.41500267653699, 8.522066209301746, 22.610418208343486, 90.08903209449417, 52.53633531542624, 62.59854843625389 
123.52858836925316, 8.821577330942144, 22.610195320022324, 89.36493317390986, 52.691447859455835, 62.59685765469152 
122.64276447826575, 9.124846922876582, 22.609962068100483, 88.63963138693175, 52.84894435554424, 62.59514365088273 
121.75748923640231, 9.431800513805301, 22.60971825796294, 87.91308405552971, 53.008803776415455, 62.59340683075439 
120.87271890782735, 9.742363076863079, 22.609463702561374, 87.18524719210804, 53.17100472565137, 62.59164760910263 
119.98840779930701, 10.056459043317522, 22.60919822279101, 86.45607545737633, 53.335525435514256, 62.58986640960897 
119.10450827192005, 10.374012315057385, 22.608921647859226, 85.7255221168036, 53.50234376452112, 62.58806366485106 
118.22097075316412, 10.69494627586041, 22.608633815645373, 84.99353899559236, 53.67143719475639, 62.5862398163083 
117.33774374940897, 11.01918380143235, 22.60833457305145, 84.26007643210475, 53.842782828909016, 62.584395314361686 
116.45477385865463, 11.346647268210852, 22.60802377634294, 83.52508322967101, 54.01635738701946, 62.58253061828828 
115.57200578355524, 11.67725856092938, 22.607701291479678, 82.7885066067082, 54.19213720292135, 62.580646196249646 
114.68938234467551, 12.010939078938698, 22.60736699443598, 82.050292145073, 54.37009822036194, 62.57874252527434 
113.80684449395105, 12.347609741284577, 22.607020771509795, 81.3103837365712, 54.55021598878494, 62.5768200912345 
112.92433132832915, 12.687190990542655, 22.606662519620404, 80.56872352754158, 54.7324656587584, 62.574879388815845 
112.04178010357235, 13.029602795412359, 22.606292146594285, 79.82525186143097, 54.91682197702948, 62.57292092148144 
111.15912624821202, 13.374764652074083, 22.605909571438684, 79.07990721927207, 55.103259281187626, 62.570945201429055 
110.27630337764558, 13.722595584314634, 22.605514724602656, 78.33262615797396, 55.29175149391602, 62.568952749541566 
109.39324330837682, 14.073014142427887, 22.605107548224975, 77.5833432463315, 55.48227211681097, 62.566944095330946 
108.50987607240425, 14.425938400899032, 22.604687996368945, 76.83199099865598, 55.67479422374756, 62.56491977687515 
107.62612993176975, 14.781285954881792, 22.604256035243328, 76.07849980592769, 55.86929045376895, 62.56288034074799 
106.74193139328534, 15.138973915480078, 22.60381164340943, 75.3227978643654, 56.06573300347575, 62.56082634194223 
105.85720522346337, 15.498918903846128, 22.60335481197395, 74.5648111013071, 56.264093618890584, 62.55875834378513 
104.97187446368135, 15.861037044109382, 22.602885544767187, 73.8044630982908, 56.46434358677193, 62.55667691784718 
