# MEX_intpoint_lon [deg], MEX_intpoint_lat [deg], MEX_intpoint_angle [deg], TGO_intpoint_lon [deg], TGO_intpoint_lat [deg], TGO_intpoint_angle [deg] 
-104.30746918611965, 20.506086103768126, 22.517608273008033, -161.12097609460648, 59.150917931273405, 62.528799242502394 
-105.20993913162809, 20.12814644063149, 22.51821769946462, -161.9204539347269, 58.9307958522432, 62.5309843833945 
-106.1107067300957, 19.751262147159572, 22.5188161337198, -162.71636466148084, 58.71214833512855, 62.53316395247986 
-107.00986735446814, 19.37552392967569, 22.519403406633973, -163.5088217703175, 58.49501088850579, 62.53533728968188 
-107.90751493874068, 19.00102182218075, 22.51997936237603, -164.2979351873837, 58.27941839106093, 62.53750374131684 
-108.80374195262605, 18.62784520529431, 22.520543858442842, -165.0838113900203, 58.06540510996455, 62.53966266027841 
-109.69863937757123, 18.25608282437574, 22.52109676566278, -165.86655352300585, 57.853004718247355, 62.54181340621441 
-110.59229668398785, 17.885822806789765, 22.52163796818316, -166.6462615106715, 57.64225031122338, 62.54395534569634 
-111.48480180957353, 17.517152678282724, 22.522167363441802, -167.42303216501165, 57.43317442200472, 62.546087852381376 
-112.37624113860755, 17.150159378438076, 22.522684862122603, -168.19695928991712, 57.22580903615074, 62.54821030716678 
-113.26669948211598, 16.784929275181664, 22.52319038809539, -168.9681337816564, 57.020185605491754, 62.550322098336956 
-114.15626005880782, 16.421548178309347, 22.523683878340062, -169.73664372573046, 56.81633506116587, 62.552422621702846 
-115.04500447669368, 16.060101352011145, 22.524165282855268, -170.50257449022513, 56.61428782590582, 62.55451128073413 
-115.93301271530639, 15.700673526367769, 22.524634564551686, -171.26600881578395, 56.41407382561064, 62.55658748668371 
-116.82036310845017, 15.343348907797582, 22.52509169913008, -172.0270269023217, 56.215722500235735, 62.55865065870486 
-117.70713232741443, 14.988211188432665, 22.52553667494439, -172.78570649259782, 56.019262814033084, 62.56070022396117 
-118.59339536459395, 14.635343554405239, 22.525969492850013, -173.5421229527653, 55.824723265172175, 62.56273561772898 
-119.4792255174662, 14.284828693026318, 22.526390166037547, -174.29634935000854, 55.632131894770296, 62.56475628349264 
-120.36469437288282, 13.936748798840574, 22.52679871985219, -175.04845652738086, 55.441516295360195, 62.56676167303264 
-121.24987179163949, 13.591185578542252, 22.527195191599098, -175.79851317595015, 55.25290361882122, 62.568751246506444 
-122.13482589329517, 13.248220254739085, 22.527579630334976, -176.54658590435616, 55.0663205837993, 62.570724472522606 
-123.01962304121881, 12.907933568551725, 22.527952096646167, -177.2927393058827, 54.88179348263962, 62.572680828207524 
-123.9043278278468, 12.570405781038616, 22.52831266241364, -178.0370360231423, 54.699348187855186, 62.57461979926574 
-124.78900306014235, 12.235716673436656, 22.52866141056506, -178.77953681047018, 54.51901015815295, 62.57654088003327 
-125.67370974525251, 11.903945546210366, 22.528998434814433, -179.52030059411908, 54.34080444403862, 62.57844357352437 
-126.55850707636529, 11.575171216903133, 22.5293238393896, 179.74061546965459, 54.16475569302021, 62.5803273914717 
-127.44345241877508, 11.249472016785873, 22.529637738747933, 179.0031559385269, 53.99088815442934, 62.58219185436028 
-128.3286012961693, 10.926925786300115, 22.529940257280746, 178.2672670299818, 53.81922568387879, 62.584036491454974 
-129.21400737715587, 10.607609869293793, 22.530231529006674, 177.53289656904386, 53.649791747373705, 62.5858608408221 
-130.09972246205444, 10.29160110605009, 22.530511697254486, 176.79999393779184, 53.48260942509342, 62.58766444934472 
-130.9857964699817, 9.97897582511097, 22.530780914335843, 176.06851002657706, 53.31770141485991, 62.589446872732346 
-131.87227742626303, 9.669809833899219, 22.531039341208338, 175.33839718687472, 53.15509003530828, 62.59120767552487 
-132.75921145021033, 9.364178408144218, 22.53128714712924, 174.60960918569862, 52.994797228774175, 62.59294643109104 
-133.6466427433077, 9.062156280118913, 22.53152450930059, 173.88210116151177, 52.83684456391233, 62.594662721621525 
-134.53461357785227, 8.76381762569721, 22.531751612505907, 173.15582958156926, 52.681253238059796, 62.59635613811666 
-135.42316428610147, 8.469236050243047, 22.53196864873911, 172.43075220063037, 52.52804407935703, 62.59802628036949 
-136.31233324998092, 8.17848457334447, 22.532175816826165, 171.7068280209808, 52.37723754863938, 62.59967275694357 
-137.2021568914114, 7.891635612408376, 22.53237332203982, 170.98401725370795, 52.22885374111116, 62.60129518514652 
-138.09266966331623, 7.608760965133473, 22.532561375708145, 170.26228128117344, 52.08291238781388, 62.60289319099871 
-138.98390404137365, 7.329931790881426, 22.53274019481724, 169.5415826206303, 51.93943285689982, 62.60446640919796 
-139.87589051658117, 7.055218590968674, 22.532910001608656, 168.8218848889343, 51.79843415472181, 62.60601448307999 
-140.76865758870207, 6.784691187903347, 22.533071023172123, 168.1031527682996, 51.65993492674962, 62.60753706457506 
-141.6622317606652, 6.518418703594614, 22.533223491034136, 167.3853519730528, 51.52395345832284, 62.609033814160696 
-142.556637533992, 6.2564695365639045, 22.533367640742778, 166.66844921734003, 51.39050767525008, 62.61050440081131 
-143.45189740532626, 5.998911338190153, 22.533503711449548, 165.95241218374315, 51.25961514426371, 62.61194850194403 
-144.34803186414248, 5.745810988023676, 22.53363194548863, 165.23720949276495, 51.1312930733392, 62.613365803361965 
-145.2450593917104, 5.497234568205935, 22.533752587954154, 164.52281067314212, 51.00555831188759, 62.61475599919404 
-146.14299646139324, 5.253247337034977, 22.533865886276, 163.80918613294867, 50.88242735082971, 62.61611879183254 
-147.0418575403574, 5.013913701718833, 22.5339720897948, 163.0963071314527, 50.76191632255999, 62.61745389186812 
-147.94165509277138, 4.779297190362024, 22.534071449336583, 162.3841457516918, 50.6440410008079, 62.61876101802233 
-148.84239958457079, 4.549460423232544, 22.534164216787644, 161.6726748737324, 50.5288168004044, 62.62003989707835 
-149.74409948986462, 4.324465083359576, 22.53425064467031, 160.96186814858228, 50.416258776960845, 62.62129026380969 
-150.64676129905826, 4.104371886514435, 22.53433098571998, 160.25169997272317, 50.30638162646731, 62.6225118609074 
-151.55038952876401, 3.889240550629919, 22.534405492464156, 159.54214546323578, 50.19919968481722, 62.623704438905705 
-152.45498673357125, 3.6791297647154586, 22.534474416803945, 158.8331804334869, 50.09472692726485, 62.62486775610658 
-153.36055351974147, 3.474097157327989, 22.53453800959855, 158.1247813693523, 49.992976967822095, 62.626001578503114 
-154.26708856089368, 3.2741992646605538, 22.53459652025343, 157.41692540594903, 49.89396305860066, 62.627105679702325 
-155.17458861574042, 3.0794914983128265, 22.534650196312498, 156.7095903048514, 49.79769808910563, 62.62817984084713 
-156.08304854793064, 2.8900281128098193, 22.53469928305505, 156.0027544317669, 49.70419458548624, 62.62922385053803 
-156.99246134805173, 2.7058621729369348, 22.534744023097844, 155.29639673464922, 49.613464709749316, 62.630237504754604 
-157.90281815783786, 2.5270455209611598, 22.534784656002934, 154.5904967222253, 49.52552025894078, 62.631220606777 
-158.81410829662676, 2.3536287438100074, 22.53482141789172, 153.88503444291575, 49.44037266430053, 62.632172967107586 
-159.7263192901011, 2.1856611402809625, 22.53485454106579, 153.17999046412845, 49.358032990395515, 62.633094403392924 
-160.63943690134494, 2.0231906883557236, 22.534884253634946, 152.4753458519045, 49.27851193423587, 62.63398474034654 
-161.55344516423963, 1.8662640126943026, 22.534910779153034, 151.7710821508994, 49.20181982437901, 62.63484380967232 
-162.4683264192156, 1.714926352385156, 22.53493433626195, 151.0671813646799, 49.12796662002572, 62.6356714499887 
-163.38406135137177, 1.569221529027806, 22.534955138344444, 150.3636259363203, 49.0569619101129, 62.63646750675424 
-164.30062903096504, 1.4291919152250978, 22.534973393185876, 149.66039872928044, 48.98881491240706, 62.63723183219442 
-165.21800695626547, 1.2948784035622358, 22.53498930264584, 148.95748300855095, 48.92353447260224, 62.63796428522974 
-166.13617109876597, 1.1663203761495655, 22.53500306233961, 148.25486242204846, 48.86112906342666, 62.638664731405704 
-167.05509595072613, 1.04355567480587, 22.535014861330133, 147.55252098224784, 48.801606783761265, 62.63933304282443 
-167.97475457502293, 0.9266205719581293, 22.535024881830918, 146.85044304803603, 48.744975357773946, 62.639969098078154 
-168.89511865727255, 0.8155497423329615, 22.53503329892014, 146.14861330677414, 48.691242134072645, 62.64057278218508 
-169.81615856017896, 0.7103762355136134, 22.53504028026641, 145.4470167565551, 48.64041408488053, 62.64114398652713 
-170.73784338005828, 0.6111314494350688, 22.53504598586652, 144.74563868864337, 48.59249780523629, 62.641682608790425 
-171.66014100547818, 0.5178451048879739, 22.53505056779559, 144.04446467008506, 48.54749951222224, 62.64218855290797 
-172.5830181779445, 0.43054522110021437, 22.53505416996988, 143.34348052647638, 48.505425044223145, 62.6426617290051 
-173.50644055455936, 0.34925809246252826, 22.53505692792259, 142.64267232487927, 48.46627986021817, 62.64310205334776 
-174.4303727725674, 0.2740082664621668, 22.535058968592974, 141.94202635687267, 48.43006903910828, 62.643509448293464 
-175.35477851569865, 0.20481852288565902, 22.535060410129034, 141.2415291217292, 48.39679727908143, 62.643883842245366 
-176.27962058221058, 0.14170985434874006, 22.535061361704038, 140.54116730970654, 48.36646889701758, 62.64422516960949 
-177.20486095452358, 0.08470144820822509, 22.535061923347158, 139.8409277854436, 48.3390878279354, 62.64453337075472 
-178.13046087033896, 0.033810669906920346, 22.535062185788377, 139.14079757145177, 48.31465762448234, 62.644808391976596 
-179.05638089512115, -0.010946952200913603, 22.535062230317944, 138.4407638316909, 48.293181456469924, 62.64505018546397 
-179.98258099582145, -0.04955774050018468, 22.535062128660524, 137.74081385522203, 48.274662110455466, 62.64525870926936 
179.09097938428604, -0.08200988020234526, 22.53506194286422, 137.0409350399262, 48.25910198937152, 62.645433927282696 
178.164341249789, -0.10829342983467213, 22.535061725204617, 136.34111487628152, 48.246503112204294, 62.64557580920825 
177.23754597647982, -0.1284003301009469, 22.535061518103916, 135.64134093118906, 48.236867113722, 62.645684330545855 
176.31063523399786, -0.14232441108782026, 22.53506135406549, 134.94160083183897, 48.230195244253764, 62.6457594725749 
175.38365090791487, -0.15006139779580052, 22.535061255623546, 134.24188224960832, 48.22648836952009, 62.64580122234271 
174.45663502141068, -0.15160891397873094, 22.535061235308387, 133.54217288398212, 48.225746970515026, 62.645809572655935 
173.52962965668684, -0.1469664842804562, 22.535061295627038, 132.842460446489, 48.227971143440676, 62.64578452207623 
172.60267687626782, -0.13613553466249473, 22.535061429059404, 132.14273264464327, 48.23316059969403, 62.645726074919054 
171.67581864433987, -0.11911939112138524, 22.535061618069808, 131.44297716588468, 48.24131466590637, 62.64563424125658 
170.7490967482769, -0.09592327669952228, 22.535061835134165, 130.743181661508, 48.2524322840349, 62.64550903692425 
169.82255272050276, -0.06655430679820248, 22.53506204278245, 130.04333373057335, 48.266512011506535, 62.64535048353069 
168.89622776083667, -0.03102148280665151, 22.53506219365661, 129.3434209037894, 48.28355202141326, 62.6451586084717 
167.97016265946831, 0.010664315934483902, 22.535062230583755, 128.64343062736035, 48.30355010275858, 62.64493344494749 
167.0443977207038, 0.05849034181155937, 22.535062086664574, 127.9433502467885, 48.32650366075428, 62.64467503198382 
166.11897268762337, 0.11244199023041739, 22.53506168537679, 127.2431669906234, 48.352409717166644, 62.644383414456506 
165.19392666778498, 0.1725028124899785, 22.535060940693644, 126.54286795414862, 48.381264910710925, 62.644058643119386 
164.26929806010554, 0.2386545302000117, 22.53505975721706, 125.84244008299737, 48.41306549749314, 62.64370077463593 
163.345124483046, 0.3108770512016353, 22.535058030325555, 125.14187015668738, 48.44780735149749, 62.643309871613866 
162.42144270421994, 0.3891484869450924, 22.53505564633642, 124.44114477206544, 48.48548596511821, 62.64288600264348 
161.4982885715415, 0.4734451712754549, 22.535052482682236, 123.74025032665295, 48.526096449733906, 62.6424292423389 
160.57569694602006, 0.5637416805733768, 22.535048408101254, 123.03917300188077, 48.569633536322776, 62.64193967138242 
159.65370163630396, 0.6600108551942665, 22.53504328284153, 122.33789874620486, 48.61609157611652, 62.6414173765721 
158.73233533506738, 0.7622238221465351, 22.535036958878557, 121.63641325809083, 48.66546454129095, 62.64086245087212 
157.811629557328, 0.8703500189461273, 22.535029280145903, 120.93470196885757, 48.71774602569094, 62.64027499346599 
156.89161458077493, 0.984357218582229, 22.535020082778857, 120.2327500253678, 48.772929245587285, 62.639655109812296 
155.97231938817905, 1.1042115555264937, 22.5350091953705, 119.53054227255474, 48.831007040462815, 62.639002911703436 
155.0537716119493, 1.2298775527159163, 22.53499643923997, 118.82806323577209, 48.89197187382507, 62.63831851732624 
154.13599748089155, 1.3613181494378286, 22.534981628712575, 118.12529710295574, 48.95581583404252, 62.63760205132533 
153.2190217692175, 1.498494730043581, 22.534964571411408, 117.4222277065832, 49.022530635201306, 62.63685364486855 
152.3028677478433, 1.6413671534164902, 22.53494506855984, 116.71883850541856, 49.09210761797927, 62.636073435714174 
151.3875571380099, 1.7898937831183426, 22.53492291529496, 116.01511256602792, 49.16453775053386, 62.63526156828036 
150.47311006724863, 1.9440315181381012, 22.53489790099102, 115.31103254405154, 49.239811629400236, 62.634418193716044 
149.55954502770786, 2.1037358241658968, 22.53486980959288, 114.60658066521742, 49.317919480396114, 62.63354346997345 
148.64687883684851, 2.26896076531525, 22.534838419958692, 113.90173870608047, 49.39885115952908, 62.63263756188202 
147.73512660050923, 2.439659036216273, 22.534803506211606, 113.19648797447118, 49.4825961539028, 62.63170064122362 
146.82430167833454, 2.6157819944031235, 22.534764838099907, 112.49080928963696, 49.56914358261735, 62.63073288680848 
145.91441565155085, 2.7972796929192856, 22.534722181365158, 111.78468296205783, 49.6584821976598, 62.62973448455241 
145.0054782930714, 2.9841009130650566, 22.53467529811778, 111.07808877291879, 49.75060038478012, 62.628705627554446 
144.09749753990098, 3.176193197212564, 22.534623947219742, 110.37100595321914, 49.845486164347854, 62.62764651617489 
143.19047946780861, 3.3735028816146992, 22.534567884673606, 109.66341316249898, 49.94312719218452, 62.62655735811389 
142.28442826822763, 3.5759751291358595, 22.534506864017708, 108.95528846716192, 50.04351076036684, 62.625438368489895 
141.3793462273397, 3.783553961833701, 22.534440636726657, 108.24660931837228, 50.14662379799532, 62.62428976991821 
140.47523370729198, 3.9961822933229025, 22.534368952616898, 107.53735252950413, 50.25245287192276, 62.62311179258907 
139.57208912949392, 4.213801960853756, 22.534291560256534, 106.82749425311854, 50.36098418743713, 62.62190467434527 
138.66990895993473, 4.436353757040343, 22.534208207379148, 106.11700995744417, 50.4722035888928, 62.620668660759286 
137.76868769645887, 4.663777461175155, 22.534118641300783, 105.40587440233584, 50.58609656028429, 62.61940400520904 
136.86841785793467, 4.896011870069128, 22.534022609339836, 104.69406161468406, 50.70264822575589, 62.61811096895309 
135.9690899752462, 5.132994828358583, 22.533919859239028, 103.98154486324738, 50.82184335004111, 62.61678982120408 
135.07069258403786, 5.3746632582226015, 22.533810139589086, 103.26829663287887, 50.9436663388249, 62.615440839200836 
134.17321221913807, 5.620953188457113, 22.533693200253534, 102.55428859811587, 51.06810123902189, 62.61406430827871 
133.27663341058707, 5.871799782854229, 22.533568792793936, 101.83949159610171, 51.19513173896334, 62.61266052193796 
132.380938681192, 6.127137367838114, 22.53343667089521, 101.12387559880582, 51.324741168485545, 62.61122978191002 
131.48610854553291, 6.386899459310966, 22.53329659079025, 100.40740968450856, 51.45691249891169, 62.60977239822113 
130.59212151034086, 6.65101878866563, 22.53314831168349, 99.69006200851398, 51.591628342919655, 62.60828868925397 
129.6989540761713, 6.919427327923514, 22.532991596172685, 98.9717997730538, 51.72887095428711, 62.60677898180576 
128.8065807402946, 7.192056313959579, 22.532826210668443, 98.25258919634314, 51.86862222750564, 62.605243611144004 
127.91497400072718, 7.468836271778243, 22.53265192581099, 97.53239548074758, 52.010863697254834, 62.60368292105869 
127.02410436132733, 7.74969703680693, 22.532468516883508, 96.81118278001914, 52.155576537727505, 62.60209726391119 
126.13394033788111, 8.034567776176544, 22.53227576422153, 96.08891416555689, 52.30274156179624, 62.600487000679585 
125.244448465106, 8.323377008960266, 22.53207345361798, 95.36555159164654, 52.45233922001161, 62.598852500999996 
124.35559330450086, 8.616052625345088, 22.53186137672313, 94.6410558596307, 52.604349599421816, 62.59719414320429 
123.46733745297448, 8.912521904712287, 22.531639331439067, 93.91538658096049, 52.75875242220312, 62.59551231435336 
122.57964155218603, 9.212711532606058, 22.531407122308117, 93.18850213907598, 52.91552704409024, 62.59380741026574 
121.6924642985354, 9.516547616571083, 22.531164560894695, 92.46035965006207, 53.0746524525949, 62.59207983554234 
120.80576245374242, 9.823955700842811, 22.530911466160116, 91.73091492202295, 53.23610726500118, 62.59033000358581 
119.9194908559597, 10.134860779875721, 22.530647664829853, 91.00012241311725, 53.39986972612494, 62.5885583366153 
119.03360243136524, 10.449187310697463, 22.530372991752603, 90.26793518819258, 53.5659177058246, 62.586765265675886 
118.14804820618635, 10.766859224078514, 22.53008729025105, 89.53430487395649, 53.734228696249914, 62.58495123064299 
117.26277731911014, 11.087799934509016, 22.529790412463456, 88.79918161261801, 53.90477980881479, 62.58311668022124 
116.37773703403928, 11.411932348976649, 22.529482219675828, 88.06251401393133, 54.077547770879775, 62.58126207193751 
115.49287275315803, 11.739178874540672, 22.52916258264419, 87.32424910557107, 54.25250892212882, 62.57938787212846 
114.60812803027572, 12.069461424699837, 22.528831381906542, 86.58433228176483, 54.4296392106249, 62.577494555922286 
113.7234445844229, 12.402701424552754, 22.528488508084035, 85.84270725010737, 54.608914188527706, 62.57558260721393 
112.83876231367684, 12.738819814751837, 22.528133862170947, 85.09931597647642, 54.790309007456486, 62.57365251863453 
111.95401930920202, 13.077737054252744, 22.52776735581312, 84.3540986279686, 54.97379841347997, 62.571704791514414 
111.0691518694934, 13.419373121863604, 22.52738891157445, 83.60699351376968, 55.159356741714625, 62.56973993583963 
110.18409451481821, 13.763647516599164, 22.52699846319112, 82.85793702387166, 55.3469579105118, 62.56775847020165 
109.29878000185691, 14.110479256846965, 22.52659595581301, 82.10686356554537, 55.53657541521298, 62.5657609217411 
108.41313933854916, 14.459786878354013, 22.5261813462323, 81.35370549747395, 55.72818232145202, 62.56374782608367 
107.52710179915877, 14.811488431043621, 22.525754603098605, 80.59839306145088, 55.92175125798176, 62.5617197272701 
106.64059493957575, 15.165501474673958, 22.525315707120583, 79.84085431154115, 56.11725440900147, 62.55967717767853 
105.75354461288171, 15.521743073350873, 22.524864651253548, 79.08101504060335, 56.314663505960766, 62.55762073794005 
104.86587498521047, 15.88012978890917, 22.52440144087295, 78.31879870406527, 56.513949818814, 62.55555097684711 
