# MEX_intpoint_lon [deg], MEX_intpoint_lat [deg], MEX_intpoint_angle [deg], TGO_intpoint_lon [deg], TGO_intpoint_lat [deg], TGO_intpoint_angle [deg] 
-104.03685740497878, 20.44309464657019, 22.35664008458747, -151.61682171676995, 59.1040064503952, 62.52883687813731 
-104.94421448098024, 20.07355495016401, 22.357229885471657, -152.4137134432298, 58.882480412904236, 62.531037939716136 
-105.84987748039141, 19.705024174079142, 22.357809248008657, -153.20705850822023, 58.66244465620476, 62.53323334790765 
-106.75393827685176, 19.337592084448506, 22.358378008198184, -153.99697048820113, 58.44393462954047, 62.535422437907364 
-107.65648741047691, 18.971347784266644, 22.358936014676654, -154.7835593608306, 58.226985155670064, 62.53760455140018 
-108.55761405985585, 18.606379730343402, 22.35948312873688, -155.5669316277572, 58.011630449226224, 62.539779036745834 
-109.45740601547861, 18.242775749528523, 22.36001922433227, -156.3471904329906, 57.79790413406682, 62.54194524915698 
-110.35594965446712, 17.880623054170144, 22.36054418806599, -157.1244356769849, 57.58583925966574, 62.54410255086946 
-111.25332991649081, 17.520008256771952, 22.361057919164868, -157.8987641265729, 57.37546831658887, 62.54625031130524 
-112.14963028075645, 17.16101738381655, 22.36156032943821, -158.67026952088648, 57.166823251098116, 62.54838790722737 
-113.04493274397069, 16.80373588872399, 22.362051343221683, -159.43904267339917, 56.959935478924606, 62.55051472288776 
-113.93931779918084, 16.44824866391716, 22.362530897306268, -160.20517157022536, 56.754835898250505, 62.55263015016706 
-114.83286441540795, 16.094640051966852, 22.362998940852492, -160.96874146480832, 56.55155490193633, 62.55473358870707 
-115.72565001799416, 15.742993855791523, 22.363455435290078, -161.7298349691281, 56.350122389029636, 62.556824446035684 
-116.6177504695923, 15.393393347888617, 22.363900354203082, -162.4885321415564, 56.15056777558887, 62.55890213768401 
-117.5092400517354, 15.04592127857541, 22.364333683200897, -163.24491057148467, 55.95292000485452, 62.560966087296485 
-118.40019144692825, 14.700659883219748, 22.364755419775168, -163.99904546084673, 55.75720755679856, 62.56301572673317 
-119.29067572121234, 14.357690888441693, 22.36516557314282, -164.75100970265618, 55.56345845708126, 62.565050496164844 
-120.18076230716045, 14.017095517269569, 22.365564164075565, -165.50087395667396, 55.37170028544355, 62.567069844160876 
-121.07051898726566, 13.678954493234585, 22.36595122471599, -166.2487067223194, 55.18196018356135, 62.56907322776972 
-121.96001187769326, 13.343348043390286, 22.3663267983807, -166.99457440893391, 54.99426486238759, 62.57106011259244 
-122.84930541237387, 13.010355900244233, 22.366690939350455, -167.7385414035039, 54.80864060900582, 62.57302997284898 
-123.73846232741829, 12.680057302590987, 22.367043712648012, -168.48067013594502, 54.62511329301893, 62.57498229143779 
-124.62754364584376, 12.352530995236839, 22.367385193803628, -169.22102114204847, 54.44370837249484, 62.5769165599883 
-125.51660866260471, 12.027855227608311, 22.367715468608814, -169.95965312418377, 54.26445089949037, 62.5788322789069 
-126.40571492992831, 11.706107751238052, 22.36803463285845, -170.6966230098525, 54.08736552517355, 62.58072895741625 
-127.29491824295934, 11.387365816122987, 22.36834279208184, -171.43198600818164, 53.9124765045635, 62.582606113587964 
-128.18427262572453, 11.071706165951728, 22.368640061262944, -172.1657956644431, 53.739807700906496, 62.58446327436924 
-129.0738303174323, 10.759205032199214, 22.368926564550105, -172.8981039126831, 53.569382589705796, 62.586299975602934 
-129.96364175912723, 10.449938127088828, 22.369202434955913, -173.62896112654124, 53.401224262422176, 62.588115762041845 
-130.85375558072468, 10.143980635423437, 22.369467814047304, -174.3584161683368, 53.23535542986129, 62.589910187357034 
-131.74421858845446, 9.841407205288997, 22.369722851626566, -175.08651643649628, 53.07179842526357, 62.59168281414027 
-132.63507575274818, 9.542291937635774, 22.369967705403507, -175.81330791139462, 52.910575207111265, 62.59343321390085 
-133.52637019660665, 9.246708374744381, 22.37020254065935, -176.53883519967764, 52.75170736166708, 62.59516096705734 
-134.41814318449067, 8.95472948758568, 22.370427529902702, -177.26314157713284, 52.5952161052582, 62.596865662923555 
-135.3104341117795, 8.66642766208539, 22.370642852518134, -177.9862690301719, 52.44112228631856, 62.59854689968983 
-136.20328049484684, 8.381874684306467, 22.370848694407847, -178.70825829598593, 52.28944638720224, 62.60020428439929 
-137.0967179618061, 8.10114172456439, 22.371045247626743, -179.42914890143183, 52.14020852578014, 62.601837432919254 
-137.9907802439804, 7.824299320492472, 22.371232710011675, 179.85102079929328, 51.99342845683145, 62.6034459699084 
-138.88549916815563, 7.551417359076476, 22.37141128480506, 179.1322135881356, 51.849125573241345, 62.60502952877931 
-139.7809046496769, 7.2825650576803875, 22.37158118027359, 178.4143933477749, 51.707318907015576, 62.606587751657045 
-140.67702468645135, 7.01781094408688, 22.371742609322396, 177.6975250272703, 51.56802713012259, 62.60812028933363 
-141.5738853539224, 6.75722283557891, 22.371895789105288, 176.9815746087151, 51.43126855517298, 62.60962680121911 
-142.4715108010817, 6.500867817090795, 22.37204094063147, 176.26650907485399, 51.297061135946144, 62.611106955288626 
-143.36992324758688, 6.248812218459697, 22.372178288369366, 175.55229637761857, 51.165422467773524, 62.61256042802648 
-144.26914298205398, 6.001121590810729, 22.372308059848, 174.83890540753933, 51.036369787787166, 62.61398690436698 
-145.1691883615943, 5.75786068211146, 22.37243048525648, 174.12630596399325, 50.9099199750427, 62.61538607763244 
-146.07007581266586, 5.51909341193385, 22.372545797042157, 173.41446872624851, 50.7860895505249, 62.61675764946825 
-146.9718198333095, 5.284882845464072, 22.37265422950793, 172.70336522526833, 50.6648946770439, 62.61810132977573 
-147.87443299683918, 5.055291166803296, 22.37275601840916, 171.99296781623931, 50.546351159030216, 62.6194168366426 
-148.77792595705648, 4.830379651604544, 22.37285140055103, 171.28324965178894, 50.430474442235735, 62.62070389627131 
-149.68230745505622, 4.610208639093449, 22.372940613386454, 170.57418465586014, 50.317279613348376, 62.621962242905546 
-150.58758432769062, 4.3948375035228135, 22.373023894615386, 169.86574749821105, 50.20678139952731, 62.62319161875528 
-151.49376151775658, 4.1843246251132555, 22.373101481785962, 169.15791356951019, 50.098994167865605, 62.62439177392005 
-152.40084208596863, 3.978727360534385, 22.3731736118979, 168.45065895699724, 49.99393192478697, 62.62556246631136 
-153.30882722477767, 3.7781020129831115, 22.37324052100891, 167.74396042068315, 49.89160831538301, 62.62670346157389 
-154.21771627409194, 3.5825038019177886, 22.373302443844363, 167.03779537006153, 49.79203662269713, 62.62781453300598 
-155.12750673895488, 3.3919868325086275, 22.37335961341096, 166.3321418413067, 49.695229766961056, 62.62889546147928 
-156.0381943092288, 3.206604064866936, 22.37341226061477, 165.6269784749339, 49.60120030478988, 62.62994603535866 
-156.9497728813298, 3.0264072831173214, 22.37346061388423, 164.92228449389776, 49.509960428341046, 62.63096605042113 
-157.8622345820567, 2.8514470643784455, 22.373504898798522, 164.2180396821074, 49.42152196444286, 62.63195530977536 
-158.77556979454783, 2.681772747719606, 22.37354533772188, 163.51422436333584, 49.33589637369755, 62.632913623781214 
-159.6897671863995, 2.517432403161407, 22.373582149444335, 162.81081938050374, 49.253094749564035, 62.633840809969755 
-160.60481373996922, 2.3584728007901177, 22.373615548829278, 162.10780607531706, 49.173127817425176, 62.63473669296373 
-161.52069478488488, 2.204939380056068, 22.373645746468338, 161.40516626824027, 49.096005933644264, 62.63560110439908 
-162.43739403277291, 2.0568762193271692, 22.373672948344147, 160.70288223878657, 49.02173908461513, 62.636433882847264 
-163.3548936142125, 1.9143260057691907, 22.37369735550126, 160.00093670610784, 48.950336885810316, 62.63723487373878 
-164.27317411791665, 1.777330005624678, 22.3737191637258, 159.29931280986716, 48.88180858083137, 62.63800392928812 
-165.19221463213333, 1.6459280349625252, 22.373738563234163, 158.59799409137844, 48.81616304046535, 62.638740908420054 
-166.1119927882535, 1.5201584309699472, 22.37375573837128, 157.89696447499713, 48.753408761751324, 62.63944567669791 
-167.0324848066058, 1.4000580238582638, 22.373770867318747, 157.19620824974766, 48.69355386706048, 62.640118106253254 
-167.95366554440918, 1.2856621094532825, 22.37378412181329, 156.49571005117255, 48.636606103193394, 62.64075807571805 
-168.87550854584933, 1.1770044225401046, 22.373795666875893, 155.7954548433906, 48.58257284049794, 62.641365470158675 
-169.79798609423514, 1.074117111031102, 22.373805660551948, 155.09542790134984, 48.53146107201063, 62.64194018101218 
-170.72106926618633, 0.9770307110243391, 22.37381425366276, 154.39561479326323, 48.48327741262496, 62.642482106025355 
-171.64472798779377, 0.8857741228181747, 22.37382158956885, 153.6960013632143, 48.43802809828903, 62.64299114919601 
-172.56893109268867, 0.8003745879457341, 22.373827803945154, 152.99657371392138, 48.39571898523573, 62.64346722071695 
-173.4936463819484, 0.7208576672909393, 22.373833024568643, 152.2973181896485, 48.35635554924748, 62.64391023692327 
-174.41884068576016, 0.6472472203452838, 22.373837371118473, 151.5982213592524, 48.31994288495844, 62.644320120241865 
-175.344479926757, 0.5795653856619539, 22.373840954989046, 150.89926999935423, 48.28648570519594, 62.64469679914449 
-176.27052918493416, 0.5178325625610333, 22.373843879116198, 150.20045107762633, 48.25598834036367, 62.645040208103964 
-177.19695276404718, 0.4620673941363873, 22.37384623781665, 149.50175173618325, 48.228454737868084, 62.645350287553256 
-178.1237142593875, 0.41228675161163103, 22.37384811664114, 148.80315927506777, 48.20388846159025, 62.64562698384823 
-179.050776626826, 0.3685057200889434, 22.3738495922412, 148.10466113582208, 48.1822926914043, 62.645870249233695 
-179.97810225300896, 0.33073758573096973, 22.373850732249966, 147.40624488513447, 48.16367022274432, 62.646080041813036 
179.09434697341277, 0.2989938244119604, 22.373851595176948, 146.7078981985531, 48.14802346622078, 62.64625632552103 
178.16660958964567, 0.2732840918705032, 22.37385223031718, 146.00960884425712, 48.13535444728756, 62.64639907010078 
177.23872448583433, 0.2536162153919742, 22.373852677674627, 145.31136466687704, 48.12566480596081, 62.64650825108396 
176.31073083149212, 0.2399961870443375, 22.373852967900042, 144.61315357135473, 48.11895579659016, 62.64658384977474 
175.38266800141534, 0.23242815848692167, 22.373853122243442, 143.91496350683556, 48.115228287683266, 62.646625853237744 
174.45457550121714, 0.230914437366932, 22.37385315252107, 143.21678245058337, 48.11448276178395, 62.64663425428934 
173.5264928926184, 0.23545548531414692, 22.373853061097094, 142.5185983919101, 48.11671931540434, 62.64660905149307 
172.5984597186345, 0.24604991753957792, 22.373852840879927, 141.82039931611186, 48.121937659011394, 62.646550249158615 
171.67051542879688, 0.26269450403922534, 22.373852475333237, 141.12217318840268, 48.130137117067484, 62.64645785734463 
170.74269930454804, 0.2853841723994627, 22.373851938501602, 140.42390793783818, 48.14131662812539, 62.64633189186547 
169.8150503849486, 0.31411201219601564, 22.373851195050815, 139.7255914412197, 48.15547474497692, 62.64617237430138 
168.88760739283276, 0.3488692809737897, 22.373850200322682, 139.02721150697192, 48.172609634855185, 62.64597933201282 
167.96040866154743, 0.3896454117904402, 22.373848900404482, 138.32875585898378, 48.1927190796896, 62.64575279815811 
167.03349206240742, 0.4364280223020618, 22.373847232212626, 137.63021212040553, 48.21580047641309, 62.645492811715016 
166.10689493299614, 0.48920292536501137, 22.37384512359076, 136.93156779739218, 48.241850837320435, 62.645199417505914 
165.1806540064376, 0.5479541411236526, 22.37384249342196, 136.23281026278482, 48.27086679047685, 62.644872666226384 
164.2548053417622, 0.6126639105498057, 22.373839251754983, 135.53392673972087, 48.30284458017544, 62.64451261447758 
163.32938425548286, 0.6833127103956176, 22.373835299944343, 134.8349042851637, 48.33778006744222, 62.6441193248017 
162.40442525449504, 0.7598792695178056, 22.373830530804007, 134.1357297733425, 48.37566873058724, 62.64369286572121 
161.4799619704065, 0.8423405865277619, 22.373824828774655, 133.43638987909225, 48.416505665799995, 62.64323331178105 
160.5560270953996, 0.9306719487184147, 22.37381807010403, 132.73687106108446, 48.460285587787354, 62.64274074359419 
159.63265231972008, 1.0248469522156824, 22.37381012304042, 132.0371595449377, 48.507002830452045, 62.642215247890206 
158.70986827088208, 1.1248375232993126, 22.37380084803876, 131.33724130619794, 48.55665134760945, 62.64165691756694 
157.78770445467126, 1.2306139408351957, 22.373790097979292, 130.63710205317747, 48.60922471374043, 62.64106585174501 
156.86618919802146, 1.3421448597586494, 22.373777718398323, 129.93672720964145, 48.66471612477782, 62.64044215582497 
155.94534959383319, 1.4593973355460368, 22.373763547730896, 129.23610189732995, 48.72311839892368, 62.639785941547245 
155.02521144779476, 1.5823368496098493, 22.37374741756497, 128.53521091830387, 48.78442397749493, 62.6390973270547 
154.10579922726012, 1.7109273355508474, 22.373729152906858, 127.83403873710225, 48.848624925794034, 62.63837643695703 
153.18713601222942, 1.845131206199127, 22.37370857245745, 127.1325694626973, 48.915712934001874, 62.63762340239832 
152.26924344847137, 1.9849093813748295, 22.373685488898964, 126.4307868302348, 48.98567931808948, 62.63683836112551 
151.352141702819, 2.1302213162981523, 22.373659709191827, 125.7286741825447, 49.05851502074514, 62.636021457559956 
150.43584942066286, 2.281025030577525, 22.373631034881203, 125.02621445140832, 49.13421061231337, 62.63517284286984 
149.52038368565863, 2.437277137704372, 22.373599262412913, 124.32339013856644, 49.21275629174206, 62.63429267504465 
148.60575998165922, 2.598932874982509, 22.37356418345815, 123.62018329645248, 49.29414188753368, 62.63338111897115 
147.69199215687397, 2.76594613382021, 22.37352558524675, 122.91657550863479, 49.378356858696705, 62.63243834651013 
146.77909239025146, 2.938269490313155, 22.373483250908407, 122.21254786995055, 49.46539029569287, 62.631464536574875 
145.86707116007508, 3.115854236046964, 22.3734369598215, 121.50808096631351, 49.55523092137588, 62.63045987520993 
144.95593721475538, 3.29865040904836, 22.373386487968983, 120.80315485417724, 49.64786709191695, 62.629424555671 
144.04569754579563, 3.486606824815213, 22.373331608300962, 120.09774903963405, 49.74328679771256, 62.62835877850517 
143.1363573629035, 3.6796711073563007, 22.373272091103377, 119.39184245713004, 49.84147766426927, 62.62726275163139 
142.22792007121384, 3.877789720173185, 22.373207704372405, 118.68541344777455, 49.942426953060675, 62.62613669042135 
141.3203872505847, 4.080907997117583, 22.37313821419398, 117.97843973722227, 50.04612156235105, 62.62498081777999 
140.4137586369227, 4.288970173059466, 22.373063385128006, 117.27089841310556, 50.15254802798027, 62.62379536422581 
139.5080321054901, 4.501919414302436, 22.372982980596753, 116.5627659019922, 50.26169252410436, 62.62258056797083 
138.6032036561418, 4.7196978486850005, 22.372896763276906, 115.85401794584435, 50.37354086388564, 62.621336674999746 
137.69926740043675, 4.942246595308024, 22.372804495494677, 115.14462957795233, 50.48807850012657, 62.62006393914816 
136.7962155505657, 5.169505793830722, 22.37270593962367, 114.43457509831637, 50.60529052584079, 62.61876262217978 
135.89403841003332, 5.4014146332797806, 22.372600858484635, 113.72382804844753, 50.725161674755114, 62.61743299386219 
134.99272436603147, 5.637911380318064, 22.372489015747007, 113.01236118555886, 50.8476763217354, 62.61607533204127 
134.09225988343763, 5.878933406921918, 22.372370176331255, 112.30014645611531, 50.97281848312963, 62.61468992271369 
133.19262950037125, 6.124417217418142, 22.372244106811905, 111.58715496871106, 51.10057181702088, 62.61327706009749 
132.2938158252389, 6.374298474834242, 22.37211057582043, 110.87335696623971, 51.23091962338261, 62.6118370467006 
131.39579953519964, 6.628512026517715, 22.3719693544476, 110.1587217973234, 51.363844844128806, 62.61037019338678 
130.4985593759792, 6.8869919289828, 22.371820216644725, 109.44321788696347, 51.49933006305077, 62.608876819439146 
129.6020721629646, 7.149671471945229, 22.371662939623324, 108.72681270637541, 51.63735750563235, 62.60735725262074 
128.70631278350717, 7.416483201508283, 22.37149730425252, 108.0094727419676, 51.777909038735196, 62.60581182923217 
127.81125420036672, 7.687358942465486, 22.371323095453892, 107.29116346342323, 51.92096617014496, 62.604240894166075 
126.91686745622667, 7.962229819687988, 22.37114010259305, 106.57184929084185, 52.06651004796937, 62.60264480095796 
126.02312167921372, 8.241026278566988, 22.370948119867464, 105.85149356089546, 52.2145214598788, 62.60102391183358 
125.1299840893563, 8.523678104483668, 22.37074694669015, 105.13005849195291, 52.36498083217907, 62.599378597752334 
124.23742000591737, 8.810114441281927, 22.37053638806852, 104.40750514812274, 52.5178682287067, 62.597709238446896 
123.3453928555406, 9.100263808720877, 22.370316254978025, 103.68379340216475, 52.673163349535685, 62.596016222458154 
122.45386418114946, 9.394054118886917, 22.370086364730078, 102.95888189721632, 52.830845529484854, 62.594299947166135 
121.56279365154373, 9.691412691546862, 22.3698465413337, 102.23272800727881, 52.99089373641435, 62.592560818816054 
120.67213907163821, 9.992266268426246, 22.369596615850508, 101.50528779640604, 53.153286569299304, 62.590799252539696 
119.78185639329443, 10.296541026398486, 22.36933642674247, 100.77651597653585, 53.31800225606834, 62.589015672371765 
118.89189972669664, 10.604162589573251, 22.369065820212025, 100.04636586390107, 53.48501865119388, 62.587210511260935 
118.0022213522295, 10.9150560402738, 22.368784650534128, 99.31478933395641, 53.654313233021135, 62.58538421107583 
117.11277173281734, 11.22914592889529, 22.368492780379714, 98.5817367747529, 53.82586310082132, 62.58353722260516 
116.22349952668847, 11.546356282638106, 22.368190081130155, 97.84715703868987, 53.99964497155505, 62.58167000555249 
115.33435160053453, 11.86661061311148, 22.3678764331824, 97.11099739257199, 54.17563517633031, 62.5797830285249 
114.44527304303573, 12.189831922805302, 22.367551726244184, 96.37320346589459, 54.35380965653937, 62.57787676901596 
113.5562071787315, 12.515942710428936, 22.3672158596191, 95.6337191972798, 54.53414395965797, 62.5759517133822 
112.66709558221706, 12.84486497511815, 22.36686874248103, 94.89248677898031, 54.716613234689625, 62.57400835681364 
111.77787809265443, 13.176520219512561, 22.366510294137576, 94.14944659936728, 54.90119222723688, 62.57204720329767 
110.88849282858948, 13.51082945170774, 22.366140444282163, 93.40453718331305, 55.08785527418072, 62.57006876557649 
109.99887620307304, 13.84771318608771, 22.365759133234498, 92.65769513037867, 55.276576297948274, 62.56807356509792 
109.10896293908921, 14.187091443044928, 22.365366312168874, 91.90885505071084, 55.46732880034844, 62.566062131959285 
108.21868608529961, 14.528883747596742, 22.364961943330293, 91.15794949855082, 55.66008585595346, 62.5640350048446 
107.3279770321183, 14.873009126908332, 22.364546000237766, 90.40490890325444, 55.85482010500408, 62.561992730954586 
106.43676552813781, 15.219386106734008, 22.36411846787485, 89.64966149771789, 56.05150374581452, 62.559935865929674 
105.54497969693347, 15.567932706790048, 22.36367934286677, 88.8921332441026, 56.250108526652326, 62.557864973765874 
104.65254605427845, 15.918566435073854, 22.363228633644262, 88.1322477567469, 56.45060573706724, 62.55578062672327 
