# MEX_intpoint_lon [deg], MEX_intpoint_lat [deg], MEX_intpoint_angle [deg], TGO_intpoint_lon [deg], TGO_intpoint_lat [deg], TGO_intpoint_angle [deg] 
-104.35260817223077, 20.516464959984265, 22.544779236824187, -162.76786736389084, 59.142545791149146, 62.52906469745051 
-105.25424470341196, 20.137119482704147, 22.545391980635355, -163.5668670307718, 58.92216556095252, 62.53125277780467 
-106.15417778499008, 19.758837254511207, 22.545993637694362, -164.36230331183043, 58.70326279278323, 62.53343527142497 
-107.0525033755424, 19.38170913185883, 22.546584037994315, -165.15428971950547, 58.485872984055504, 62.53561151736167 
-107.94931597674956, 19.00582529751101, 22.547163024951416, -165.94293619138998, 58.2700310029152, 62.53778086107552 
-108.84470860854384, 18.631275279819278, 22.54773045542455, -166.7283492111559, 58.05577110661243, 62.53994265462256 
-109.73877278559013, 18.258147971164224, 22.548286199718575, -167.51063192519499, 57.84312695887313, 62.542096256830895 
-110.63159849496412, 17.88653164552606, 22.548830141571585, -168.28988425510084, 57.63213164631673, 62.54424103347071 
-111.52327417490305, 17.516513975150733, 22.549362178125953, -169.06620300612047, 57.4228176939644, 62.54637635741613 
-112.41388669451293, 17.14818204628058, 22.549882219883404, -169.83968197170248, 57.215217079880205, 62.548501608799874 
-113.30352133432547, 16.781622373920076, 22.550390190644162, -170.61041203427047, 57.009361248985925, 62.55061617516047 
-114.19226176760684, 16.41692091560956, 22.550886027430323, -171.37848126234798, 56.80528112608823, 62.55271945158168 
-115.08019004232865, 16.05416308418137, 22.55136968039351, -172.14397500416067, 56.60300712815478, 62.55481084082469 
-115.9673865637205, 15.693433759474418, 22.551841112707052, -172.90697597784066, 56.40256917587472, 62.556889753452836 
-116.85393007733038, 15.334817298985307, 22.55230030044293, -173.66756435835376, 56.20399670453676, 62.55895560794863 
-117.73989765252924, 14.978397547435053, 22.55274723243341, -174.42581786127062, 56.007318674257114, 62.56100783082377 
-118.62536466640083, 14.624257845232659, 22.553181910117914, -175.18181182349824, 55.81256357958733, 62.563045856721544 
-119.51040478796806, 14.272481035817567, 22.553604347375117, -175.93561928108656, 55.61975945853143, 62.565069128512114 
-120.39508996271246, 13.923149471865122, 22.55401457034069, -176.68731104422207, 55.428933900999915, 62.56707709738046 
-121.27949039735209, 13.576345020340089, 22.554412617210758, -177.436955769517, 55.24011405672693, 62.56906922290738 
-122.16367454484772, 13.232149066384984, 22.55479853803156, -178.18462002969952, 55.05332664267611, 62.571044973143266 
-123.04770908961692, 12.89064251603124, 22.55517239447547, -178.9303683808083, 54.86859794995894, 62.57300382467496 
-123.93165893293882, 12.551905797722709, 22.55553425960377, -179.67426342699022, 54.68595385028868, 62.5749452626858 
-124.81558717854153, 12.216018862642427, 22.55588421761644, 179.58363411700194, 54.505419801991955, 62.57686878100886 
-125.69955511836828, 11.883061183834945, 22.5562223635894, 178.84326536551845, 54.32702085559875, 62.57877388217354 
-126.58362221852501, 11.553111754118191, 22.556548803199465, 178.1045732038388, 54.15078165903118, 62.58066007744566 
-127.46784610541853, 11.22624908278002, 22.5568636524375, 177.36750223202634, 53.97672646240993, 62.58252688686108 
-128.3522825520985, 10.902551191056574, 22.557167037310034, 176.63199871072922, 53.804879122496885, 62.58437383925313 
-129.2369854648233, 10.582095606390789, 22.557459093529882, 175.89801050884464, 53.63526310679156, 62.58620047227378 
-130.12200686987396, 10.26495935547135, 22.557739966196095, 175.16548705296944, 53.46790149729804, 62.58800633240891 
-131.00739690064668, 9.951218956053777, 22.558009809463673, 174.43437927856075, 53.30281699397853, 62.589790974987736 
-131.89320378505707, 9.640950407567532, 22.55826878620358, 173.70463958273444, 53.140031917909255, 62.59155396418643 
-132.77947383329695, 9.334229180514301, 22.558517067653344, 172.97622177863107, 52.97956821415308, 62.593294873026316 
-133.6662514259861, 9.031130204665052, 22.55875483305892, 172.24908105128256, 52.821447454363465, 62.59501328336663 
-134.55357900276735, 8.731727856065053, 22.55898226930812, 171.52317391491394, 52.665690839133156, 62.59670878589207 
-135.44149705139657, 8.436095942858168, 22.559199570556185, 170.7984581716187, 52.512319200100954, 62.59838098009543 
-136.33004409738405, 8.14430768994385, 22.55940693784397, 170.0748928713472, 52.3613530018288, 62.600029474255194 
-137.21925669424513, 7.8564357224824635, 22.55960457870928, 169.35243827315074, 52.212812343461756, 62.60165388540851 
-138.1091694144238, 7.5725520482666955, 22.559792706791807, 168.6310558076263, 52.06671696018213, 62.6032538393199 
-138.9998148409544, 7.292728038978977, 22.55997154143226, 167.91070804050787, 51.92308622446917, 62.604828970445325 
-139.89122355992936, 7.017034410357646, 22.560141307266214, 167.19135863735465, 51.781939147175144, 62.60637892189238 
-140.7834241538448, 6.745541201296305, 22.560302233813136, 166.4729723292856, 51.643294378427974, 62.60790334537651 
-141.67644319589587, 6.478317751903877, 22.560454555061227, 165.75551487971427, 51.50717020837081, 62.60940190117355 
-142.57030524529753, 6.215432680555047, 22.5605985090486, 165.0389530520385, 51.37358456774789, 62.6108742580687 
-143.46503284370678, 5.956953859963336, 22.5607343374413, 164.3232545782413, 51.2425550283462, 62.61232009330218 
-144.3606465128245, 5.702948392311706, 22.560862285108776, 163.6083881283614, 51.114098803301786, 62.61373909251199 
-145.25716475325467, 5.453482583478208, 22.56098259969737, 162.89432328079386, 50.98823274727958, 62.6151309496734 
-146.15460404470053, 5.208621916396643, 22.5610955312023, 162.1810304933818, 50.86497335653499, 62.61649536703613 
-147.05297884757707, 4.968431023594979, 22.56120133153887, 161.46848107526299, 50.74433676886532, 62.61783205505885 
-147.95230160611771, 4.732973658956909, 22.561300254113245, 160.7566471594359, 50.626338763459074, 62.619140732341336 
-148.8525827530546, 4.502312668754339, 22.561392553393564, 160.0455016760109, 50.51099476065042, 62.620421125554934 
-149.7538307159487, 4.2765099620014295, 22.56147848448186, 159.33501832611515, 50.39831982158626, 62.62167296937064 
-150.65605192524595, 4.055626480183174, 22.561558302687338, 158.6251715564188, 50.28832864781309, 62.62289600638611 
-151.55925082413268, 3.839722166414159, 22.56163226310158, 157.91593653425392, 50.181035580790194, 62.624089987050674 
-152.4634298802622, 3.6288559340853874, 22.561700620176328, 157.20728912329648, 50.07645460133605, 62.62525466958971 
-153.36858959942074, 3.4230856350596652, 22.561763627304284, 156.49920585978458, 49.97459932901417, 62.62638981992746 
-154.2747285411983, 3.222468027478101, 22.56182153640348, 155.79166392924657, 49.875483021464674, 62.62749521160949 
-155.18184333672613, 3.0270587432425606, 22.561874597505923, 155.0846411437133, 49.77911857368734, 62.62857062572425 
-156.08992870853888, 2.8369122552409993, 22.56192305835083, 154.3781159193908, 49.685518517282205, 62.62961585082441 
-156.9989774926137, 2.6520818443844707, 22.561967163983198, 153.6720672547705, 49.59469501965301, 62.63063068284789 
-157.90898066263577, 2.4726195665263453, 22.562007156358078, 152.96647470915352, 49.50665988317905, 62.63161492503899 
-158.81992735653216, 2.298576219336097, 22.56204327395122, 152.26131838156908, 49.42142454436046, 62.632568387869625 
-159.73180490531234, 2.1300013092012016, 22.562075751376423, 151.5565788900657, 49.339000072942184, 62.63349088896104 
-160.64459886424575, 1.9669430182321523, 22.562104819010305, 150.85223735135574, 49.25939717102112, 62.63438225300607 
-161.55829304640153, 1.8094481714466333, 22.56213070262486, 150.14827536079463, 49.182626172141454, 62.63524231169218 
-162.4728695585688, 1.6575622042097096, 22.56215362302827, 149.44467497267644, 49.108697040382374, 62.63607090362539 
-163.3883088395679, 1.5113291300074698, 22.562173795714514, 148.74141868082867, 49.03761936944266, 62.63686787425545 
-164.3045897009573, 1.370791508632075, 22.56219143052224, 148.03848939948932, 48.9694023817262, 62.637633075802235 
-165.22168937013106, 1.2359904148563192, 22.562206731303323, 147.33587044445065, 48.90405492743245, 62.63836636718365 
-166.13958353579622, 1.106965407675519, 22.56221989560148, 146.63354551445352, 48.84158548365559, 62.63906761394512 
-167.05824639581027, 0.983754500194445, 22.562231114341568, 145.93149867281878, 48.78200215349614, 62.63973668819104 
-167.97765070735116, 0.8663941302361128, 22.562240571529713, 145.22971432929975, 48.72531266518835, 62.640373468517915 
-168.89776783938365, 0.7549191317486423, 22.562248443964908, 144.52817722214394, 48.6715243712469, 62.640977839949876 
-169.81856782737844, 0.6493627070848785, 22.56225490096231, 143.8268724003493, 48.62064424763588, 62.641549693876236 
-170.74001943023183, 0.5497564002282803, 22.562260104088626, 143.12578520610325, 48.57267889296317, 62.642088927991644 
-171.6620901893251, 0.4561300710366663, 22.56226420691005, 142.42490125739198, 48.52763452770308, 62.64259544623848 
-172.58474648965543, 0.3685118705734886, 22.56226735475288, 141.724206430768, 48.4855169934498, 62.64306915875216 
-173.5079536229615, 0.2869282175938786, 22.562269684477382, 141.02368684426472, 48.446331752204514, 62.643509981809146 
-174.43167585275992, 0.21140377625029555, 22.562271324264962, 140.32332884044698, 48.41008388569803, 62.64391783777764 
-175.35587648120008, 0.14196143507961043, 22.56227239341912, 139.62311896958667, 48.37677809475176, 62.64429265507154 
-176.28051791763838, 0.07862228733048193, 22.562273002180298, 138.92304397295342, 48.34641869867867, 62.644634368107326 
-177.20556174882614, 0.02140561268636928, 22.56227325155501, 138.22309076620942, 48.31900963472622, 62.64494291726405 
-178.13096881059724, -0.029671139563812086, 22.56227323315935, 137.52324642289992, 48.294554457563265, 62.645218248846945 
-179.05669926093793, -0.07459236585950375, 22.562273029077215, 136.82349815802831, 48.273056338812076, 62.64546031505386 
-179.98271265431242, -0.1133443221626629, 22.562272711733286, 136.12383331170747, 48.25451806662747, 62.645669073945484 
179.0910319828845, -0.14591513617256435, 22.56227234378105, 135.42423933287793, 48.23894204532379, 62.64584448941895 
178.1645760758836, -0.17229481792576962, 22.562271978006038, 134.72470376308357, 48.226330295051355, 62.645986531184924 
177.23796142424524, -0.1924752687505214, 22.56227165724421, 134.02521422029653, 48.216684451522895, 62.646095174748375 
176.31123012385356, -0.20645028854940112, 22.562271414315855, 133.32575838278225, 48.21000576579122, 62.64617040139279 
175.3844244883471, -0.21421558138890484, 22.562271271974904, 132.6263239729962, 48.206295104078535, 62.64621219816821 
174.4575869701344, -0.21576875937963966, 22.562271242873848, 131.92689874150378, 48.20555294765783, 62.64622055788296 
173.53076008114425, -0.2111093448356747, 22.562271329544117, 131.22747045091478, 48.20777939278702, 62.64619547909895 
172.6039863134622, -0.20023877070674206, 22.562271524392315, 130.5280268598244, 48.212974150695686, 62.64613696613075 
171.67730806000495, -0.18316037928195128, 22.562271809711792, 129.82855570675196, 48.221136547624724, 62.64604502904828 
170.75076753538445, -0.15987941916896248, 22.562272157710105, 129.1290446940692, 48.23226552491854, 62.64591968368355 
169.82440669711238, -0.13040304055732205, 22.5622725305518, 128.42948147190955, 48.246359639169775, 62.64576095164058 
168.898267167294, -0.09474028877998958, 22.562272880416916, 127.72985362205026, 48.263417062415904, 62.64556886030943 
167.97239015495938, -0.052902096191864305, 22.56227314957478, 127.03014864175826, 48.28343558238726, 62.645343442883494 
167.04681637917577, -0.004901272389048109, 22.562273270473256, 126.33035392759173, 48.30641260280573, 62.64508473838078 
166.12158599308216, 0.049247507202740466, 22.562273165843134, 125.63045675914792, 48.332345143733086, 62.64479279166851 
165.19673850898377, 0.10952771433727067, 22.562272748817605, 124.93044428274932, 48.36122984196822, 62.64446765349122 
164.27231272463808, 0.17592098251708008, 22.56227192306671, 124.23030349505783, 48.3930629514916, 62.6441093805024 
163.34834665086126, 0.2484071230807848, 22.562270582946503, 123.53002122660882, 48.42784034395611, 62.643718035299464 
162.42487744057556, 0.32696414276252755, 22.56226861366277, 122.82958412525495, 48.46555750922228, 62.643293686462044 
161.50194131941478, 0.41156826267344904, 22.562265891449037, 122.12897863951021, 48.506209555936536, 62.64283640859348 
160.57957351799664, 0.5021939386516272, 22.56226228375872, 121.42819100178434, 48.54979121215059, 62.64234628236551 
159.6578082059654, 0.598813882923271, 22.56225764947109, 120.72720721149724, 48.59629682597981, 62.641823394565904 
158.73667842789985, 0.701399087014782, 22.5622518391108, 120.02601301806286, 48.64572036629867, 62.64126783814903 
157.81621604117473, 0.8099188458523499, 22.562244695080672, 119.32459390373167, 48.69805542347079, 62.64067971228936 
156.8964516558567, 0.9243407829830242, 22.56223605190748, 118.6229350662806, 48.753295210111176, 62.64005912243759 
155.97741457670682, 1.0446308768487091, 22.562225736500302, 117.9210214015386, 48.811432561878085, 62.639406180379346 
155.05913274735394, 1.1707534880425026, 22.562213568421264, 117.2188374857359, 48.87245993829173, 62.63872100429635 
154.14163269669612, 1.3026713874747202, 22.562199360168098, 116.51636755766465, 48.93636942357677, 62.63800371882998 
153.22493948757722, 1.440345785374512, 22.562182917468323, 115.81359550063766, 49.00315272752573, 62.637254455146845 
152.30907666777938, 1.5837363610515616, 22.562164039584644, 115.11050482423204, 49.07280118637988, 62.63647335100657 
151.39406622336276, 1.732801293341343, 22.56214251963099, 114.40707864580394, 49.14530576372431, 62.63566055083136 
150.47992853437586, 1.8874972916566166, 22.562118144899003, 113.70329967175942, 49.2206570513936, 62.63481620577729 
149.56668233295258, 2.047779627567414, 22.562090697194357, 112.99915017856694, 49.29884527038431, 62.63394047380719 
148.65434466380302, 2.213602166831397, 22.562059953182622, 112.29461199349517, 49.37986027177043, 62.63303351976488 
147.74293084709885, 2.3849174017966837, 22.56202568474406, 111.58966647506041, 49.46369153761775, 62.63209551545065 
146.83245444374498, 2.561676484099316, 22.56198765933703, 110.88429449316624, 49.55032818189291, 62.63112663969781 
145.92292722302355, 2.7438292575782524, 22.56194564036938, 110.17847640891755, 49.639758951362694, 62.63012707844995 
145.01435913258854, 2.931324291331292, 22.561899387577448, 109.472192054091, 49.73197222647914, 62.629097024839254 
144.1067582707828, 3.1241089128365807, 22.561848657412128, 108.76542071024214, 49.82695602224539, 62.62803667926462 
143.20013086124345, 3.3221292410652006, 22.56179320343148, 108.05814108742959, 49.92469798905793, 62.62694624947101 
142.29448122975515, 3.525330219512003, 22.561732776699372, 107.35033130253484, 50.02518541351946, 62.62582595062793 
141.3898117833059, 3.7336556490731403, 22.56166712618964, 106.64196885715664, 50.12840521921761, 62.624676005408574 
140.48612299129425, 3.947048220700688, 22.561595999195205, 105.9330306150563, 50.2343439674639, 62.6234966440683 
139.5834133688325, 4.16544954776635, 22.56151914174167, 105.22349277913118, 50.34298785798699, 62.62228810452255 
138.6816794620863, 4.388800198068533, 22.561436299004765, 104.5133308678909, 50.45432272957489, 62.6210506324245 
137.78091583558665, 4.617039725418917, 22.56134721573114, 103.80251969141084, 50.56833406065953, 62.619784481241226 
136.881115061448, 4.850106700747029, 22.561251636661947, 103.0910333267362, 50.68500696983782, 62.61848991232909 
135.9822677104211, 5.0879387426637495, 22.56114930695866, 102.37884509270805, 50.80432621632242, 62.617167195007916 
135.08436234470958, 5.330472547426711, 22.561039972630564, 101.66592752418286, 50.9262762003157, 62.61581660663327 
134.187385512474, 5.577643918253572, 22.560923380963263, 100.95225234561435, 51.0508409632998, 62.61443843266734 
133.2913217439485, 5.829387793931077, 22.560799280947872, 100.23779044396645, 51.17800418823574, 62.613032966747625 
132.39615354909046, 6.085638276670987, 22.560667423710036, 99.52251184092373, 51.307749199663995, 62.61160051075356 
131.50186141668675, 6.346328659165957, 22.560527562938447, 98.80638566436521, 51.44005896369894, 62.61014137487081 
130.6084238148353, 6.61139145080161, 22.560379455312138, 98.08938011906514, 51.57491608790927, 62.60865587765292 
129.7158171927248, 6.880758402983212, 22.560222860926135, 97.37146245658353, 51.71230282107593, 62.607144346080176 
128.82401598363236, 7.1543605335384015, 22.560057543714706, 96.65259894430693, 51.85220105281923, 62.60560711561547 
127.93299260906157, 7.432128150159599, 22.559883271871872, 95.93275483359906, 51.99459231308624, 62.604044530257035 
127.04271748394397, 7.713990872852622, 22.559699818268484, 95.21189432701857, 52.139457771489276, 62.60245694258761 
126.1531590228278, 7.999877655360581, 22.559506960865296, 94.4899805445595, 52.28677823648604, 62.60084471382022 
125.2642836469804, 8.28971680553432, 22.559304483121675, 93.76697548886878, 52.43653415439146, 62.599208213839844 
124.37605579233204, 8.583436004623644, 22.5590921743991, 93.04284000939201, 52.58870560821125, 62.59754782124149 
123.48843791819189, 8.880962325465461, 22.558869830359257, 92.31753376539827, 52.74327231628623, 62.59586392336362 
122.60139051666864, 9.182222249547898, 22.55863725335592, 91.59101518783109, 52.90021363073686, 62.594156916317544 
121.7148721227323, 9.48714168293111, 22.5583942528203, 90.86324143993193, 53.05950853569606, 62.592427205012086 
120.82883932485562, 9.795645971008552, 22.558140645639185, 90.13416837657923, 53.221135645318896, 62.59067520317332 
119.94324677617834, 10.10765991209375, 22.557876256525518, 89.4037505022848, 53.38507320155644, 62.58890133335974 
119.05804720613993, 10.423107769820653, 22.557600918380828, 88.67194092778576, 53.55129907168111, 62.58710602697209 
118.17319143253106, 10.741913284346973, 22.557314472649022, 87.93869132516922, 53.71979074555013, 62.585289724257706 
117.28862837391836, 11.063999682352241, 22.557016769661196, 87.20395188146306, 53.89052533259309, 62.58345287430996 
116.40430506240044, 11.389289685824359, 22.556707668970756, 86.46767125062436, 54.063479558509144, 62.581595935061316 
115.52016665665893, 11.717705519629835, 22.556387039678665, 85.7297965038544, 54.238629761658615, 62.57971937327154 
114.63615645527183, 12.049168917865256, 22.556054760748236, 84.99027307816549, 54.41595188913355, 62.577823664509005 
113.75221591026235, 12.383601128988705, 22.555710721309055, 84.24904472312363, 54.59542149249018, 62.57590929312667 
112.86828464086098, 12.720922919732073, 22.55535482094962, 83.50605344568665, 54.77701372312674, 62.57397675223156 
111.98430044746411, 13.06105457779631, 22.554986969998357, 82.76123945305537, 54.96070332728814, 62.57202654364787 
111.10019932577765, 13.403915913333707, 22.554607089792565, 82.01454109345207, 55.146464640679035, 62.57005917787357 
110.2159154811404, 13.749426259222473, 22.55421511293495, 81.26589479473772, 55.33427158266568, 62.56807517403069 
109.33138134302722, 14.097504470140523, 22.553810983537364, 80.51523500077619, 55.52409765004573, 62.56607505980854 
108.44652757973783, 14.448068920446948, 22.553394657451484, 79.76249410545019, 55.71591591036505, 62.56405937140031 
107.56128311328462, 14.801037500880861, 22.55296610248597, 79.0076023842317, 55.90969899475839, 62.56202865343279 
106.6755751344971, 15.156327614088871, 22.552525298609968, 78.25048792320513, 56.10541909029112, 62.55998345888894 
105.78932911836955, 15.513856168993867, 22.552072238142536, 77.49107654543953, 56.30304793177674, 62.557924349023494 
104.90246883968298, 15.873539574019118, 22.55160692592775, 76.72929173460206, 56.50255679304482, 62.555851893271324 
