# MEX_intpoint_lon [deg], MEX_intpoint_lat [deg], MEX_intpoint_angle [deg], TGO_intpoint_lon [deg], TGO_intpoint_lat [deg], TGO_intpoint_angle [deg] 
-104.66921368280343, 20.588081637936835, 22.737784288246296, -174.46051834318476, 58.954957817722864, 62.53309494541675 
-105.56486103006706, 20.198849658742056, 22.73842063036845, -175.2490238185951, 58.72897431066616, 62.535347080295956 
-106.45879954664298, 19.81073719242516, 22.739045205443038, -176.03405270827264, 58.504531335629984, 62.537593296556345 
-107.35112930504789, 19.4238360918353, 22.739657837304815, -176.81571866605645, 58.281664128266925, 62.5398329142345 
-108.2419487923863, 19.038237527980417, 22.74025836403655, -177.59413165975144, 58.060407309915, 62.54206526016992 
-109.13135488914904, 18.65403201168903, 22.74084663798857, -178.36939810102163, 57.84079490583691, 62.54428966819426 
-110.01944284921522, 18.271309414323603, 22.74142252578106, -179.141620970322, 57.62286036242773, 62.54650547931287 
-110.90630628091535, 17.890158987512446, 22.741985908289255, -179.91089993704335, 57.406636563441275, 62.548712041877764 
-111.7920371290258, 17.510669381868457, 22.74253668061149, 179.3226685249561, 57.192155845283146, 62.55090871175326 
-112.67672565757346, 17.13292866466606, 22.743074752020252, 178.55899102626256, 56.979450011415665, 62.55309485247323 
-113.5604604333403, 16.757024336448453, 22.7436000458964, 177.7979771550942, 56.76855034591795, 62.555269835390625 
-114.4433283099668, 16.38304334653997, 22.744112499646565, 177.0395393746013, 56.55948762624208, 62.55743303981882 
-115.32541441256238, 16.011072107439762, 22.744612064603913, 176.28359292411935, 56.35229213520441, 62.55958385316523 
-116.2068021227404, 15.641196508074149, 22.74509870591255, 175.53005572421858, 56.146993672248854, 62.56172167105687 
-117.08757306400344, 15.27350192588737, 22.7455724023956, 174.77884828540007, 55.94362156401764, 62.5638458974582 
-117.96780708741385, 14.908073237750953, 22.746033146407136, 174.02989362029007, 55.74220467426272, 62.56595594478088 
-118.8475822574916, 14.54499482967423, 22.746480943668548, 173.283117159191, 55.542771413129884, 62.56805123398608 
-119.72697483829083, 14.184350605299011, 22.746915813089032, 172.53844666885067, 55.345349745845716, 62.57013119467885 
-120.60605927961291, 13.826223993163545, 22.747337786570924, 171.795812174317, 55.14996720083634, 62.572195265194985 
-121.48490820332219, 13.47069795272157, 22.747746908799936, 171.05514588374808, 54.95665087730522, 62.574242892680324 
-122.36359238973752, 13.117854979104036, 22.7481432370207, 170.31638211605483, 54.76542745229633, 62.5762735331625 
-123.24218076407968, 12.767777106612016, 22.748526840797823, 169.5794572312547, 54.576323187267406, 62.57828665161549 
-124.12074038296208, 12.420545910930963, 22.748897801762887, 168.8443095634222, 54.38936393419712, 62.58028172201674 
-124.99933642091807, 12.076242510057567, 22.749256213347753, 168.11087935612372, 54.204575141248725, 62.58225822739729 
-125.87803215696538, 11.734947563931945, 22.74960218050437, 167.37910870023023, 54.02198185801166, 62.58421565988474 
-126.75688896121386, 11.396741272769377, 22.749935819411764, 166.64894147400474, 53.841608740341954, 62.58615352073945 
-127.63596628152973, 11.061703374087005, 22.750257257170304, 165.92032328536504, 53.66348005482077, 62.58807132038387 
-128.51532163027383, 10.729913138422802, 22.75056663148388, 165.19320141622705, 53.48761968285011, 62.58996857842534 
-129.39501057113924, 10.40144936374524, 22.750864090330317, 164.4675247688367, 53.31405112440335, 62.59184482367224 
-130.27508670611698, 10.076390368554158, 22.751149791620453, 163.7432438140033, 53.14279750144823, 62.5936995941441 
-131.1556016626256, 9.75481398367454, 22.75142390284648, 163.0203105411493, 52.97388156105813, 62.59553243707533 
-132.03660508084445, 9.43679754274727, 22.75168660071979, 162.29867841009624, 52.80732567822788, 62.59734290891287 
-132.91814460129635, 9.122417871422009, 22.75193807079904, 161.57830230450884, 52.64315185840883, 62.599130575308344 
-133.8002658527288, 8.811751275260121, 22.752178507108795, 160.8591384869229, 52.48138173977778, 62.60089501110425 
-134.68301244034933, 8.504873526356798, 22.75240811174928, 160.1411445552862, 52.32203659525357, 62.60263580031483 
-135.56642593447236, 8.201859848694097, 22.75262709449775, 159.42427940094288, 52.16513733427472, 62.60435253610163 
-136.45054585964238, 7.902784902238519, 22.752835672402142, 158.7085031679969, 52.01070450435054, 62.60604482074392 
-137.3354096842981, 7.607722765799134, 22.753034069367263, 157.9937772139911, 51.858758292398626, 62.607712265604405 
-138.22105281104916, 7.316746918664547, 22.753222515734382, 157.2800640718416, 51.709318525879794, 62.60935449108977 
-139.10750856763926, 7.029930221039116, 22.753401247854512, 156.56732741297037, 51.5624046737423, 62.61097112660742 
-139.9948081986709, 6.74734489330194, 22.753570507656164, 155.85553201158012, 51.418035847186175, 62.61256181051726 
-140.88298085817297, 6.469062494113807, 22.753730542207975, 155.1446437100192, 51.27623080025796, 62.61412619007995 
-141.77205360309165, 6.1951538974007505, 22.75388160327692, 154.43462938518482, 51.13700793028634, 62.61566392140079 
-142.66205138778895, 5.925689268244871, 22.754023946882505, 153.72545691591765, 51.00038527816802, 62.6171746693704 
-143.55299705963483, 5.66073803771616, 22.754157832847827, 153.01709515133948, 50.86638052851373, 62.618658107601625 
-144.44491135577982, 5.400368876681637, 22.754283524347745, 152.3095138800909, 50.73501100966305, 62.620113918363444 
-145.33781290119563, 5.14464966863107, 22.754401287455046, 151.6026838004254, 50.60629369357706, 62.6215417925118 
-146.23171820807343, 4.893647481561246, 22.754511390685018, 150.89657649112004, 50.48024519561723, 62.62294142941765 
-147.126641676668, 4.647428538963573, 22.754614104539108, 150.1911643831622, 50.35688177421871, 62.624312536892454 
-148.0225955976765, 4.406058189962864, 22.754709701048295, 149.486420732177, 50.236219330465964, 62.625654831111405 
-148.91959015624062, 4.169600878657691, 22.754798453316653, 148.78231959155747, 50.11827340757846, 62.6269680365345 
-149.81763343765783, 3.9381201127158554, 22.754880635065895, 148.07883578626505, 50.00305919031356, 62.628251885825804 
-150.71673143488886, 3.711678431280978, 22.754956520181292, 147.3759448872663, 49.890591504294164, 62.62950611977094 
-151.61688805794304, 3.4903373722493494, 22.755026382259754, 146.673623186575, 49.78088481526773, 62.630730487193304 
-152.5181051452243, 3.274157438978461, 22.755090494160502, 145.9718476728701, 49.67395322830326, 62.63192474486893 
-153.42038247691445, 3.0631980664916996, 22.755149127559037, 145.2705960076592, 49.5698104869332, 62.63308865744057 
-154.32371779046932, 2.857517587245832, 22.755202552504993, 144.56984650196216, 49.468469972245956, 62.63422199733074 
-155.22810679829783, 2.6571731965306, 22.75525103698434, 143.8695780934865, 49.36994470193542, 62.63532454465457 
-156.1335432076911, 2.462220917571945, 22.755294846486652, 143.16977032427076, 49.2742473293133, 62.63639608713199 
-157.04001874306238, 2.2727155664126233, 22.75533424357798, 142.47040331877093, 49.18139014228976, 62.63743642000004 
-157.94752317055432, 2.088710716645876, 22.75536948747977, 141.77145776236733, 49.09138506232806, 62.63844534592523 
-158.85604432506437, 1.9102586640798604, 22.75540083365459, 141.07291488026928, 49.0042436433783, 62.63942267491612 
-159.7655681397318, 1.73741039141198, 22.75542853339903, 140.37475641679703, 48.91997707079541, 62.64036822423665 
-160.67607867792495, 1.5702155329939613, 22.755452833444433, 139.67696461501993, 48.838596160246325, 62.64128181831984 
-161.58755816775817, 1.4087223397696005, 22.75547397556588, 138.97952219673203, 48.76011135661106, 62.642163288682816 
-162.49998703916282, 1.2529776444682486, 22.755492196200098, 138.28241234274645, 48.684532732882325, 62.643012473842674 
-163.4133439635271, 1.103026827137724, 22.755507726072572, 137.5856186734901, 48.61186998906787, 62.643829219233695 
-164.3276058959125, 0.9589137811010726, 22.755520789834634, 136.8891252298823, 48.54213245110007, 62.64461337712626 
-165.24274811984566, 0.820680879421688, 22.755531605710743, 136.19291645448084, 48.475329069756576, 62.645364806547114 
-166.15874429467652, 0.6883689419613657, 22.755540385156593, 135.4969771728792, 48.41146841959605, 62.6460833732018 
-167.0755665054845, 0.5620172031154643, 22.75554733252842, 134.8012925753408, 48.35055869791259, 62.64676894939885 
-167.99318531550523, 0.4416632803088663, 22.755552644764062, 134.1058481986549, 48.29260772371263, 62.647421413976446 
-168.91156982104184, 0.32734314333537795, 22.755556511075955, 133.4106299082007, 48.23762293671744, 62.64804065223119 
-169.8306877088156, 0.21909108462215038, 22.75555911265682, 132.71562388020627, 48.18561139639471, 62.64862655584947 
-170.75050531570082, 0.11693969049897952, 22.755560622398026, 132.02081658418942, 48.136579781022064, 62.64917902284158 
-171.6709876907813, 0.020919813550636435, 22.755561204621426, 131.32619476556812, 48.090534386785684, 62.64969795747841 
-172.59209865965477, -0.0689394538717421, 22.75556101482464, 130.63174542842822, 48.0474811269166, 62.65018327023138 
-173.5138008909046, -0.15261080490682016, 22.75556019944039, 129.93745581843777, 48.00742553086731, 62.65063487771509 
-174.43605596464786, -0.23006874213595502, 22.75555889561011, 129.24331340589606, 47.97037274353115, 62.65105270263343 
-175.35882444306168, -0.3012896001651801, 22.755557230972077, 128.54930586890677, 47.93632752450678, 62.651436673728746 
-176.2820659427805, -0.3662515667720322, 22.75555532346447, 127.85542107666548, 47.90529424740981, 62.65178672573467 
-177.20573920905017, -0.42493470255641336, 22.755553281143474, 127.1616470728503, 47.87727689923356, 62.652102799332205 
-178.12980219151612, -0.47732095903881555, 22.755551202016832, 126.46797205910707, 47.85227907976069, 62.65238484110957 
-179.0542121215174, -0.523394195153299, 22.755549173892963, 125.77438437861849, 47.830304001027535, 62.652632803525634 
-179.9789255907502, -0.5631401920868909, 22.75554727424575, 125.0808724997487, 47.811354486842426, 62.652846644877094 
179.09610136883995, -0.5965466664219252, 22.755545570095496, 124.38742499975369, 47.79543297235934, 62.65302632926956 
178.17091320408414, -0.6236032815424069, 22.755544117905817, 123.69403054854894, 47.7825415037082, 62.653171826592335 
177.24555475868658, -0.6443016572706722, 22.755542963496968, 123.00067789252529, 47.77268173768266, 62.65328311249749 
176.32007119054606, -0.6586353777056544, 22.755542141975358, 122.30735583840472, 47.76585494148627, 62.653360168382434 
175.3945078884625, -0.6665999972393334, 22.75554167767969, 121.61405323712734, 47.76206199253774, 62.65340298137677 
174.46891038839016, -0.6681930447334973, 22.755541584143597, 120.92075896776105, 47.761303378335775, 62.65341154433336 
173.5433242894012, -0.6634140258441831, 22.755541864074853, 120.22746192142601, 47.76357919638391, 62.653385855822975 
172.61779516952498, -0.6522644234869381, 22.755542509351194, 119.53415098522522, 47.76888915417536, 62.65332592013341 
171.69236850162898, -0.6347476964414304, 22.755543501032825, 118.84081502617282, 47.777232569238315, 62.65323174727262 
170.76708956950634, -0.610869276099627, 22.75554480939146, 118.14744287511233, 47.78860836924099, 62.653103352975606 
169.84200338433558, -0.5806365613673159, 22.755546393956006, 117.4540233106161, 47.80301509215678, 62.65294075871579 
168.91715460167444, -0.5440589117341058, 22.755548203574715, 116.76054504285757, 47.82045088648849, 62.65274399172008 
167.9925874391491, -0.501147638532748, 22.755550176493745, 116.06699669744833, 47.84091351155154, 62.652513084988094 
167.06834559499643, -0.4519159944137214, 22.755552240452126, 115.37336679923082, 47.86440033781501, 62.65224807731537 
166.14447216761184, -0.3963791610662923, 22.755554312792796, 114.67964375601863, 47.89090834729982, 62.65194901332017 
165.22100957625372, -0.3345542352225486, 22.75555630058982, 113.98581584227493, 47.920434134032845, 62.65161594347469 
164.2979994830472, -0.2664602129854131, 22.755558100791372, 113.29187118272058, 47.952973904555805, 62.65124892413948 
163.3754827164264, -0.19211797252678234, 22.755559600378493, 112.59779773586249, 47.988523478487515, 62.65084801760202 
162.45349919614782, -0.11155025520609495, 22.755560676539282, 111.90358327743262, 48.02707828913781, 62.65041329211853 
161.53208785999965, -0.02478164516417393, 22.755561196858324, 111.2092153837285, 48.068633384171676, 62.649944821959835 
160.61128659232628, 0.06816145254902012, 22.755561019521146, 110.51468141484462, 48.11318342632137, 62.6494426874601 
159.69113215447808, 0.16725083525004825, 22.755559993533364, 109.819968497785, 48.160722694144866, 62.648906975069416 
158.77166011728983, 0.2724565272352214, 22.755557958954288, 109.12506350944619, 48.21124508282805, 62.648337777409225 
157.85290479568178, 0.383746805661986, 22.755554747144608, 108.42995305945959, 48.264744105028655, 62.6477351933313 
156.93489918546976, 0.5010882276264218, 22.75555018102791, 107.73462347288222, 48.321212891759096, 62.64709932797913 
156.01767490246075, 0.6244456583620429, 22.755544075365613, 107.0390607727237, 48.380644193305784, 62.646430292852855 
155.10126212390296, 0.7537823004828537, 22.75553623704499, 106.34325066229778, 48.44303038018194, 62.64572820587636 
154.18568953234845, 0.8890597241915149, 22.75552646537988, 105.64717850738545, 48.50836344411093, 62.64499319146717 
153.27098426197907, 1.0302378983719482, 22.755514552423687, 104.95082931819671, 48.57663499903701, 62.644225380609015 
152.357171847436, 1.1772752224841692, 22.755500283294296, 104.25418773111744, 48.6478362821601, 62.643424910926115 
151.444276175185, 1.3301285591781709, 22.75548343651039, 103.55723799022685, 48.72195815499113, 62.64259192676006 
150.53231943743927, 1.4887532675429032, 22.755463784338815, 102.85996392857118, 48.798991104424346, 62.64172657924851 
149.6213220886551, 1.6531032369059115, 22.755441093152484, 102.16234894917795, 48.87892524382265, 62.64082902640546 
148.71130280460363, 1.8231309210990523, 22.75541512379828, 101.46437600579478, 48.96175031411226, 62.63989943320346 
147.80227844401742, 1.9987873731058123, 22.755385631974654, 100.7660275833361, 49.0474556848821, 62.63893797165675 
146.89426401279852, 2.1800222800061, 22.755352368618247, 100.06728567802045, 49.13603035548419, 62.637944820906235 
145.98727263076984, 2.3667839981352157, 22.75531508029907, 99.3681317771796, 49.22746295612998, 62.636920167304766 
145.08131550094248, 2.559019588374239, 22.75527350962376, 98.66854683872124, 49.32174174897842, 62.635864204503996 
144.17640188126438, 2.756674851490721, 22.75522739564635, 97.96851127022484, 49.41885462921069, 62.63477713354118 
143.27253905881008, 2.9596943634494073, 22.75517647428601, 97.2680049076501, 49.51878912608672, 62.63365916292681 
142.36973232636373, 3.168021510614689, 22.755120478751188, 96.56700699363635, 49.62153240397814, 62.63251050873248 
141.46798496134193, 3.3815985247680302, 22.755059139969678, 95.86549615537058, 49.72707126337253, 62.631331394678384 
140.56729820699772, 3.600366517865669, 22.754992187023905, 95.16345038199972, 49.835392141843236, 62.63012205222099 
139.66767125584158, 3.824265516463809, 22.75491934759098, 94.46084700156352, 49.94648111497904, 62.628882720640135 
138.7691012352105, 4.053234495741107, 22.75484034838686, 93.75766265742132, 50.06032389726774, 62.62761364712534 
137.87158319491343, 4.287211413050229, 22.754754915614107, 93.05387328414645, 50.17690584292756, 62.62631508686157 
136.97511009687508, 4.526133240932995, 22.754662775412612, 92.34945408285972, 50.29621194667985, 62.62498730311358 
136.07967280670007, 4.769935999536261, 22.7545636543126, 91.64437949597281, 50.418226844456676, 62.6236305673091 
135.18526008707406, 5.018554788368033, 22.75445727968955, 90.9386231813109, 50.54293481403651, 62.62224515912065 
134.2918585929178, 5.271923817336442, 22.754343380220163, 90.23215798558209, 50.67031977560065, 62.62083136654506 
133.39945286820767, 5.529976437016621, 22.754221686338994, 89.52495591716065, 50.80036529220373, 62.619389485981706 
132.5080253443753, 5.79264516809372, 22.75409193069501, 88.81698811814859, 50.93305457015003, 62.61791982230799 
131.6175563401975, 6.0598617299326785, 22.75395384860754, 88.10822483567928, 51.0683704592685, 62.61642268895258 
130.72802406308767, 6.331557068228732, 22.753807178521, 87.39863539242474, 51.20629545307803, 62.614898407966166 
129.83940461170064, 6.607661381695, 22.753651662457766, 86.68818815626669, 51.34681168883472, 62.61334731008889 
128.95167197976085, 6.8881041477467715, 22.753487046468656, 85.97685050908983, 51.4899009474527, 62.61176973481512 
128.06479806102826, 7.172814147144527, 22.753313081080396, 85.2645888146535, 51.635544653289216, 62.61016603045469 
127.17875265531379, 7.46171948756077, 22.75312952173944, 84.55136838549653, 51.78372387378517, 62.608536554190586 
126.2935034754607, 7.754747626038544, 22.75293612925166, 83.83715344882762, 51.93441931895113, 62.60688167213287 
125.40901615520862, 8.051825390311715, 22.752732670217206, 83.12190711135165, 52.08761134068909, 62.60520175936878 
124.52525425785892, 8.352878998960533, 22.75251891746009, 82.40559132298007, 52.24327993193955, 62.60349720000843 
123.64217928566475, 8.65783408037767, 22.752294650451816, 81.68816683937163, 52.40140472564331, 62.601768387226265 
122.75975068986924, 8.9666156905232, 22.75205965572848, 80.96959318324632, 52.56196499350674, 62.60001572329787 
121.87792588132046, 9.279148329448805, 22.75181372730102, 80.24982860441439, 52.72493964455893, 62.598239619631954 
120.99666024159464, 9.595355956574382, 22.751556667057727, 79.52883003845821, 52.89030722348889, 62.59644049679739 
120.11590713456256, 9.915162004701953, 22.751288285158772, 78.80655306400351, 53.05804590875009, 62.5946187845451 
119.23561791833846, 10.238489392754552, 22.751008400422023, 78.08295185851219, 53.22813351041936, 62.59277492182443 
118.35574195755446, 10.565260537229332, 22.750716840699784, 77.35797915252762, 53.40054746779669, 62.59090935679401 
117.47622663590872, 10.895397362356531, 22.75041344324594, 76.63158618229916, 53.575264846731635, 62.58902254682704 
116.59701736893923, 11.228821308957864, 22.750098055072844, 75.90372264070983, 53.75226233666165, 62.58711495851039 
115.71805761698107, 11.565453341999477, 22.749770533297735, 75.17433662642829, 53.93151624734699, 62.58518706763783 
114.83928889826848, 11.905213956836873, 22.749430745478, 74.4433745912021, 54.1130025052861, 62.583239359196895 
113.9606508021506, 12.248023184150483, 22.749078569934973, 73.71078128520668, 54.29669664979458, 62.58127232734946 
113.08208100239274, 12.59380059357262, 22.74871389606571, 72.97649970035987, 54.482573828730466, 62.5792864754056 
112.2035152705425, 12.942465296007724, 22.748336624642484, 72.24047101150936, 54.67060879384704, 62.57728231579095 
111.32488748934459, 13.293935944649826, 22.7479466680994, 71.50263451539513, 54.86077589575445, 62.57526037000711 
110.4461296661956, 13.64813073470218, 22.74754395080586, 70.7629275672866, 55.05304907846969, 62.573221168585036 
109.5671719466346, 14.004967401805665, 22.74712840932648, 70.02128551518886, 55.24740187353388, 62.57116525103155 
108.68794262787274, 14.364363219184131, 22.746699992667143, 69.27764163150897, 55.44380739367502, 62.56909316576837 
107.808368172372, 14.726234993515648, 22.746258662506648, 68.5319270420688, 55.64223832599279, 62.56700547006423 
106.92837322148834, 15.09049905954069, 22.745804393413966, 67.78407065234673, 55.842666924641264, 62.56490272995899 
106.04788060920373, 15.457071273418933, 22.74533717305042, 67.03399907082597, 56.04506500298397, 62.562785520180924 
105.16681137597642, 15.825867004848165, 22.744857002356813, 66.28163652932267, 56.249403925194535, 62.560654424055855 
104.28508478274826, 16.196801127959617, 22.74436389572505, 65.52690480016322, 56.455654597274886, 62.55851003340901 
