# MEX_intpoint_lon [deg], MEX_intpoint_lat [deg], MEX_intpoint_angle [deg], TGO_intpoint_lon [deg], TGO_intpoint_lat [deg], TGO_intpoint_angle [deg] 
-104.20595704459461, 20.482605978499674, 22.456834078568185, -157.46954536223728, 59.15283680055264, 62.52848588478944 
-105.11028229340224, 20.107823342303615, 22.457436089667937, -158.26914824410383, 58.93278028144631, 62.53067026506644 
-106.01290796854212, 19.734078491294152, 22.458027318946172, -159.0651830506489, 58.71419757675891, 62.532849077318936 
-106.91392812764985, 19.361461787071693, 22.4586075992035, -159.85776327276082, 58.497124198321146, 62.53502166169641 
-107.81343542940103, 18.990062922164686, 22.45917677629385, -160.6469988334793, 58.28159502790751, 62.53718736473676 
-108.71152110713564, 18.61997093821961, 22.459734709144026, -161.4329962083795, 58.067644335611796, 62.539345539550695 
-109.60827494386442, 18.251274243405675, 22.460281269757505, -162.21585854171195, 57.85530579722397, 62.54149554599859 
-110.50378524852505, 17.884060628997986, 22.460816343202556, -162.99568575842054, 57.64461251065456, 62.54363675085987 
-111.39813883336662, 17.51841728510487, 22.461339827584627, -163.77257467216407, 57.435597011451506, 62.54576852799486 
-112.29142099234849, 17.15443081550755, 22.461851634003246, -164.54661908946656, 57.22829128745129, 62.54789025849941 
-113.1837154804494, 16.792187251581975, 22.462351686493314, -165.317909910122, 57.02272679260504, 62.550001330851735 
-114.07510449378984, 16.431772065275087, 22.46283992195116, -166.08653522397805, 56.81893446001802, 62.55210114105189 
-114.96566865048068, 16.073270181109116, 22.463316290045277, -166.8525804042228, 56.61694471423925, 62.55418909275386 
-115.85548697211726, 15.716765987189493, 22.463780753112037, -167.616128197297, 56.416787482836135, 62.55626459738998 
-116.74463686584716, 15.362343345193828, 22.464233286036446, -168.37725880955128, 56.2184922072877, 62.558327074288385 
-117.63319410694741, 15.010085599320542, 22.464673876118248, -169.1360499907678, 56.02208785322813, 62.56037595078257 
-118.52123282185329, 14.660075584177832, 22.46510252292347, -169.89257711466078, 55.827602920071, 62.562410662314015 
-119.40882547158984, 14.312395631594685, 22.46551923812173, -170.6469132564705, 55.63506545004312, 62.56443065252747 
-120.29604283556215, 13.9671275763376, 22.465924045309407, -171.39912926775946, 55.444503036655746, 62.566435373359006 
-121.18295399566951, 13.624352760717725, 22.466316979819176, -172.14929384852033, 55.255942832639406, 62.56842428511693 
-122.069626320713, 13.284152038074923, 22.466698088515894, -172.89747361669828, 55.06941155736755, 62.57039685655591 
-122.95612545107447, 12.946605775126413, 22.467067429579348, -173.643733175231, 54.88493550379302, 62.5723525649437 
-123.84251528364966, 12.611793853169427, 22.467425072274064, -174.3881351767037, 54.702540544920375, 62.57429089612155 
-124.72885795702548, 12.2797956681284, 22.467771096706546, -175.1307403857156, 54.52225213983587, 62.576211344557535 
-125.61521383689656, 11.950690129439023, 22.468105593570204, -175.87160773904967, 54.344095339316105, 62.57811341339331 
-126.50164150172206, 11.624555657762881, 22.468428663878466, -176.61079440373538, 54.16809479103542, 62.57999661448444 
-127.38819772863043, 11.301470181527721, 22.46874041868631, -177.34835583309138, 53.994274744391085, 62.58186046843423 
-128.27493747958317, 10.981511132290393, 22.469040978800642, -178.08434582083038, 53.8226590549647, 62.58370450462148 
-129.1619138878157, 10.664755438920736, 22.469330474479918, -178.8188165533082, 53.653271188637284, 62.58552826122187 
-130.04917824457806, 10.35127952060651, 22.469609045123455, -179.55181865999393, 53.48613422537498, 62.58733128522353 
-130.936779986202, 10.041159278681187, 22.46987683895074, 179.71659873776395, 53.32127086270126, 62.58911313243672 
-131.8247666815274, 9.734470087278183, 22.4701340126713, 178.9863879796027, 53.15870341887136, 62.59087336749792 
-132.71318401972394, 9.431286782816757, 22.470380731145486, 178.25750282057297, 52.998453835763435, 62.59261156386822 
-133.60207579854958, 9.131683652326993, 22.470617167036675, 177.5298983870609, 52.84054368150087, 62.59432730382644 
-134.49148391308987, 8.835734420622957, 22.47084350045531, 176.80353113414196, 52.68499415281929, 62.596020178457294 
-135.38144834502782, 8.543512236335218, 22.471059918595294, 176.07835880430255, 52.53182607719141, 62.59768978763392 
-136.2720071524967, 8.255089656815892, 22.47126661536321, 175.3543403874715, 52.38105991472216, 62.59933573999639 
-137.16319646057096, 7.970538631931711, 22.47146379100088, 174.63143608230325, 52.23271575982645, 62.60095765292493 
-138.05505045245516, 7.689930486762591, 22.471651651701634, 173.90960725865796, 52.08681334270103, 62.60255515250879 
-138.94760136143302, 7.413335903225275, 22.471830409221074, 173.18881642122534, 51.943372030601616, 62.60412787351108 
-139.84087946364022, 7.14082490064443, 22.472000280482543, 172.46902717424223, 51.80241082893629, 62.60567545932932 
-140.73491307172955, 6.872466815295251, 22.472161487178013, 171.75020418725364, 51.66394838218533, 62.607197561952 
-141.6297285294962, 6.608330278944566, 22.472314255364854, 171.0323131618722, 51.52800297465757, 62.608693841911716 
-142.5253502075347, 6.3484831964195125, 22.472458815059028, 170.31532079948934, 51.39459253109302, 62.610163968234566 
-143.42180050000027, 6.092992722235443, 22.47259539982529, 169.59919476989614, 51.26373461712101, 62.611607618386294 
-144.31909982254737, 5.841925236317221, 22.472724246364784, 168.88390368077188, 51.13544643958283, 62.613024478215465 
-145.21726661152044, 5.595346318850527, 22.4728455941008, 168.16941704800044, 51.00974484672747, 62.61441424189361 
-146.11631732447094, 5.353320724302349, 22.472959684763104, 167.45570526677696, 50.88664632828906, 62.61577661185278 
-147.0162664420766, 5.115912354652281, 22.47306676197131, 166.7427395834671, 50.766167015453924, 62.61711129872047 
-147.91712647153622, 4.883184231878948, 22.473167070818107, 166.03049206818486, 50.64832268072508, 62.61841802125262 
-148.81890795151463, 4.6551984697481235, 22.473260857452622, 165.31893558805436, 50.53312873769175, 62.61969650626407 
-149.72161945871096, 4.432016244951868, 22.473348368664563, 164.60804378112394, 50.42060024071136, 62.620946488557635 
-150.62526761612048, 4.213697767650173, 22.473429851469803, 163.89779103090075, 50.31075188451076, 62.622167710851315 
-151.52985710306058, 4.000302251469246, 22.473505552697723, 163.18815244147717, 50.203598003713815, 62.623359923704015 
-152.4353906670275, 3.7918878830127074, 22.473575718581134, 162.4791038132194, 50.09915257230169, 62.62452288544026 
-153.34186913744855, 3.5885117909443394, 22.473640594349003, 161.77062161899144, 49.997429203012466, 62.62565636207363 
-154.24929144139082, 3.390230014703128, 22.473700423822848, 161.0626829808885, 49.89844114668602, 62.62676012722968 
-155.157654621285, 3.1970974729134416, 22.47375544901708, 160.355265647454, 49.80220129156033, 62.62783396206805 
-156.06695385471744, 3.0091679315551345, 22.47380590974394, 159.6483479713562, 49.70872216252478, 62.62887765520417 
-156.9771824763405, 2.8264939719602196, 22.47385204322356, 158.94190888750194, 49.61801592033617, 62.62989100263102 
-157.88833200194608, 2.6491269587043162, 22.47389408369954, 158.2359278915643, 49.53009436080277, 62.63087380764041 
-158.80039215474193, 2.4771170074628244, 22.47393226206082, 157.53038501890393, 49.44496891394152, 62.631825880745104 
-159.7133508938652, 2.310512952902925, 22.473966805469924, 156.82526082386258, 49.36265064311349, 62.63274703960062 
-160.6271944451617, 2.149362316683775, 22.473997936998522, 156.12053635940987, 49.2831502441424, 62.633637108928184 
-161.5419073342535, 1.9937112756383315, 22.4740258752705, 155.41619315712467, 49.20647804442073, 62.63449592043822 
-162.4574724219098, 1.843604630210905, 22.474050834113026, 154.7122132074924, 49.13264400200817, 62.63532331275458 
-163.37387094173192, 1.6990857732251323, 22.474073022216285, 154.00857894050148, 49.061657704726336, 62.636119131340315 
-164.29108254015276, 1.5601966590575072, 22.474092642802045, 153.30527320652175, 48.99352836925427, 62.63688322842447 
-165.20908531874696, 1.4269777732915638, 22.474109893301755, 152.6022792574497, 48.92826484022835, 62.63761546293026 
-166.1278558788387, 1.2994681029278143, 22.474124965044343, 151.89958072810413, 48.86587558935079, 62.63831570040515 
-167.04736936838717, 1.1777051072240734, 22.474138042954426, 151.19716161785854, 48.80636871450996, 62.638983812952596 
-167.96759953112215, 1.0617246892401704, 22.474149305261058, 150.4950062724949, 48.749751938916326, 62.63961967916556 
-168.8885187578938, 0.9515611681601924, 22.474158923217548, 149.79309936626632, 48.69603261025725, 62.640223184062464 
-169.8100981401935, 0.8472472524641953, 22.47416706083271, 149.09142588415446, 48.64521769987369, 62.64079421902505 
-170.73230752579482, 0.7488140140199019, 22.474173874613854, 148.38997110430958, 48.59731380196199, 62.64133268173876 
-171.65511557645473, 0.6562908631631614, 22.4741795133219, 147.68872058066083, 48.55232713280341, 62.64183847613574 
-172.5784898276095, 0.5697055248340971, 22.474184117738897, 146.9876601256848, 48.51026353002429, 62.642311512340086 
-173.50239674998994, 0.48908401583348576, 22.474187820448336, 146.2867757933213, 48.47112845188929, 62.64275170661642 
-174.42680181307492, 0.41445062326151333, 22.474190745628494, 145.5860538620247, 48.434926976629875, 62.643158981320724 
-175.35166955029408, 0.3458278841983128, 22.474193008858972, 144.88548081794085, 48.40166380181075, 62.643533264854604 
-176.2769636258836, 0.28323656668261227, 22.47419471694094, 144.18504333819862, 48.371343243735744, 62.64387449162233 
-177.20264690329324, 0.2266956520417557, 22.474195967731177, 143.48472827430632, 48.34396923689553, 62.64418260199126 
-178.12868151503486, 0.17622231862270646, 22.474196849990015, 142.78452263564267, 48.31954533345861, 62.644457542255275 
-179.05502893385892, 0.13183192697010962, 22.474197443243636, 142.08441357303357, 48.29807470280726, 62.64469926460172 
-179.98165004513766, 0.09353800649365247, 22.474197817660716, 141.3843883624045, 48.279560131120014, 62.64490772708173 
179.09149477966938, 0.061352243662727984, 22.474198033943665, 140.68443438849985, 48.2640040210017, 62.645082893583876 
178.1644456085977, 0.035284471762393445, 22.47419814323458, 139.9845391286599, 48.25140839116242, 62.645224733811425 
177.23724287394163, 0.015342662240110806, 22.47419818703605, 139.28469013664693, 48.241774876146245, 62.64533322326317 
176.30992729633692, 0.001532917668316538, 22.474198197146876, 138.58487502651184, 48.23510472611061, 62.64540834321791 
175.38253980830203, -0.006140533656819518, 22.474198195612928, 137.8850814564917, 48.23139880665696, 62.64545008072232 
174.45512147738089, -0.007675341464694346, 22.47419819469295, 137.1852971129313, 48.230657598713144, 62.6454584285829 
173.527713429031, -0.0030710355967849133, 22.474198196839644, 136.48550969421888, 48.23288119846801, 62.64543338536112 
172.6003567694022, 0.007670973575758313, 22.474198194695866, 135.78570689472835, 48.23806931735828, 62.64537495537269 
171.6730925081522, 0.024547396404610164, 22.474198171105986, 135.08587638875943, 48.24622128210789, 62.64528314869019 
170.74596148144374, 0.047553066883241686, 22.474198099142466, 134.38600581446715, 48.25733603481945, 62.64515798114962 
169.81900427526864, 0.07668094722387857, 22.47419794214751, 133.68608275777262, 48.27141213311784, 62.64499947436051 
168.89226114924216, 0.11192213407905612, 22.474197653789812, 132.98609473624623, 48.28844775034519, 62.644807655719575 
167.9657719610089, 0.15326586638982576, 22.474197178136272, 132.28602918295482, 48.308440675807, 62.64458255842832 
167.0395760913987, 0.2006995348378192, 22.4741964497387, 131.58587343026468, 48.33138831506838, 62.644324221513784 
166.11371237046873, 0.2542086928739125, 22.474195393735126, 130.88561469359044, 48.35728769029969, 62.64403268985331 
165.18821900456325, 0.3137770692916901, 22.474193925965984, 130.1852400550825, 48.3861354406704, 62.643708014202275 
164.2631335045182, 0.379386582309781, 22.474191953104608, 129.4847364472423, 48.417927822790084, 62.64335025122574 
163.33849261513427, 0.45101735512284447, 22.474189372802158, 128.78409063645782, 48.452660711195115, 62.64295946353315 
162.41433224603492, 0.5286477328770367, 22.4741860738466, 128.08328920644811, 48.49032959887955, 62.64253571971639 
161.49068740402186, 0.6122543010221139, 22.474181936335675, 127.3823185416089, 48.53092959786851, 62.642079094391086 
160.56759212703344, 0.7018119049886964, 22.474176831863502, 126.68116481024764, 48.57445543983231, 62.64158966824109 
159.64507941980497, 0.7972936711358563, 22.474170623720642, 125.9798139476994, 48.620901476739284, 62.64106752806567 
158.72318119132353, 0.8986710289111461, 22.474163167107353, 125.27825163931149, 48.670261681545156, 62.64051276683008 
157.80192819416285, 1.0059137341622857, 22.474154309359673, 124.57646330328716, 48.722529648916655, 62.639925483718585 
156.88134996577583, 1.118989893537054, 22.474143890188152, 123.87443407337645, 48.777698595987026, 62.63930578419022 
155.9614747718156, 1.2378659899057132, 22.474131741928886, 123.1721487814029, 48.835761363140726, 62.63865378003736 
155.0423295515477, 1.3625069087379988, 22.474117689806345, 122.46959193961366, 48.89671041482446, 62.637969589446406 
154.12393986540897, 1.492875965365087, 22.474101552208005, 121.76674772284146, 48.96053784038192, 62.637253337060976 
153.20632984475972, 1.628934933055136, 22.474083140969988, 121.0635999504642, 49.02723535490874, 62.63650515404725 
152.28952214386942, 1.7706440718300405, 22.474062261673737, 120.36013206814994, 49.096794300124856, 62.6357251781611 
151.3735378941671, 1.9179621579495256, 22.474038713952993, 119.6563271293727, 49.16920564526048, 62.634913553817654 
150.45839666078018, 2.070846513988508, 22.47401229181096, 118.95216777668476, 49.244459987952446, 62.634070432161785 
149.54411640137872, 2.2292530394325927, 22.473982783946944, 118.24763622273049, 49.32254755514685, 62.63319597114079 
148.63071342733292, 2.393136241716734, 22.473949974092342, 117.54271423098574, 49.40345820400462, 62.632290335578155 
147.71820236718602, 2.562449267631845, 22.473913641355253, 116.83738309620693, 49.48718142280532, 62.63135369724858 
146.80659613243645, 2.737143935024398, 22.473873560573466, 116.13162362457265, 49.57370633184549, 62.63038623495401 
145.89590588561694, 2.91717076471467, 22.47382950267524, 115.42541611349978, 49.66302168432689, 62.62938813460066 
144.98614101065138, 3.102479012559721, 22.473781235047433, 114.7187403311163, 49.75511586723011, 62.628359589276464 
144.07730908546358, 3.293016701588308, 22.473728521910488, 114.01157549537112, 49.84997690216881, 62.62730079932923 
143.1694158568072, 3.48873065413589, 22.473671124699823, 113.3039002527613, 49.94759244621978, 62.626211972444956 
142.26246521727907, 3.6895665239091944, 22.473608802453025, 112.59569265665515, 50.04794979272354, 62.62509332372629 
141.35645918447375, 3.895468827911269, 22.473541312202467, 111.8869301451906, 50.15103587205039, 62.62394507577089 
140.45139788223224, 4.106380978159578, 22.47346840937267, 111.17758951872476, 50.2568372523263, 62.6227674587495 
139.5472795239328, 4.322245313131313, 22.47338984818207, 110.46764691681237, 50.365340140113005, 62.62156071048344 
138.64410039776755, 4.543003128872293, 22.473305382048448, 109.75707779468749, 50.47653038103662, 62.62032507652151 
137.74185485394634, 4.768594709707417, 22.473214763997767, 109.0458568992233, 50.590393460358364, 62.619060810215906 
136.84053529376345, 4.998959358493102, 22.47311774707553, 108.3339582443431, 50.706914503481514, 62.61776817279706 
135.940132160462, 5.234035426354253, 22.4730140847604, 107.6213550858543, 50.82607827638777, 62.61644743344711 
135.04063393182813, 5.4737603418504355, 22.47290353137944, 106.90801989567682, 50.94786918599655, 62.61509886937188 
134.14202711444304, 5.718070639518584, 22.472785842524402, 106.19392433543464, 51.07227128044016, 62.613722765871124 
133.2442962395226, 5.9669019877416885, 22.47266077546847, 105.47903922938013, 51.199268249247666, 62.61231941640681 
132.34742386026932, 6.220189215895662, 22.472528089583108, 104.76333453661653, 51.3288434234301, 62.610889122669164 
131.45139055066375, 6.477866340728754, 22.472387546754195, 104.04677932258565, 51.46097977545918, 62.60943219464051 
130.5561749056199, 6.739866591930776, 22.472238911797128, 103.32934172978392, 51.59565991913185, 62.60794895065641 
129.66175354242986, 7.006122436851455, 22.472081952870138, 102.61098894766985, 51.73286610931199, 62.606439717463964 
128.76810110342322, 7.27656560433035, 22.471916441885508, 101.8916871817237, 51.87258024154128, 62.60490483027736 
127.87519025976697, 7.551127107602592, 22.47174215491792, 101.17140162161884, 52.01478385150986, 62.603344632829916 
126.98299171633339, 7.829737266247814, 22.47155887260956, 100.45009640846263, 52.159458114378104, 62.60175947742296 
126.09147421756353, 8.112325727151832, 22.471366380571354, 99.72773460106227, 52.306583843939706, 62.60014972497105 
125.20060455425684, 8.398821484452935, 22.47116446977983, 99.00427814117023, 52.45614149161633, 62.59851574504329 
124.31034757121836, 8.689152898447468, 22.470952936969077, 98.27968781766108, 52.60811114527372, 62.596857915900756 
123.42066617569796, 8.983247713431261, 22.470731585017337, 97.55392322959001, 52.762472527848516, 62.595176624529806 
122.53152134655758, 9.281033074456246, 22.47050022332756, 96.82694274808115, 52.91920499577494, 62.593472266670695 
121.64287214410679, 9.582435542983374, 22.470258668201676, 96.09870347699203, 53.078287537199785, 62.591745246842116 
120.75467572054824, 9.887381111415632, 22.470006743207794, 95.36916121229727, 53.23969876997399, 62.589995978360434 
119.8668873309794, 10.195795216496732, 22.469744279540052, 94.63827040013409, 53.403416939408295, 62.58822488335457 
118.97946034489945, 10.507602751563331, 22.469471116370563, 93.90598409344803, 53.56941991578027, 62.58643239277512 
118.0923462581747, 10.822728077640617, 22.46918710119296, 93.17225390717604, 53.73768519157934, 62.58461894639892 
117.20549470541933, 11.14109503337296, 22.468892090157183, 92.4370299719016, 53.90818987847574, 62.58278499282767 
116.31885347275285, 11.46262694378358, 22.468585948394853, 91.70026088591277, 54.08091070399916, 62.580930989480954 
115.43236851090005, 11.787246627858384, 22.4682685503351, 90.96189366559341, 54.255824007911684, 62.57905740258391 
114.54598394860332, 12.11487640495179, 22.46793978001007, 90.22187369407315, 54.43290573825954, 62.577164707148505 
113.65964210632282, 12.445438100013119, 22.46759953135009, 89.48014466806028, 54.612131447086895, 62.57525338694919 
112.77328351020391, 12.77885304763479, 22.467247708467607, 88.73664854277806, 54.793476285794874, 62.57332393449194 
111.88684690629793, 13.115042094924249, 22.466884225930055, 87.991325474923, 54.9769150001276, 62.57137685097735 
111.00026927502567, 13.453925603204045, 22.466509009020786, 87.24411376355923, 55.162421924766605, 62.569412646257035 
110.1134858458804, 13.79542344854529, 22.466121993988097, 86.49494978886193, 55.34997097751409, 62.567431838783584 
109.22643011237176, 14.1394550211416, 22.465723128281663, 85.74376794861838, 55.53953565304442, 62.56543495555373 
108.3390338472179, 14.485939223532316, 22.465312370776395, 84.99050059239244, 55.73108901620258, 62.56342253204475 
107.4512271177999, 14.834794467684592, 22.464889691983096, 84.23507795325604, 55.92460369482699, 62.56139511214417 
106.56293830189742, 15.185938670946289, 22.464455074245805, 83.47742807698677, 56.12005187207341, 62.559353248072185 
105.67409410373266, 15.539289250882131, 22.46400851192546, 82.71747674862931, 56.31740527821507, 62.55729750029708 
104.78461957035425, 15.894763119008008, 22.463550011569737, 81.9551474163137, 56.516635181893584, 62.55522843744373 
