# MEX_intpoint_lon [deg], MEX_intpoint_lat [deg], MEX_intpoint_angle [deg], TGO_intpoint_lon [deg], TGO_intpoint_lat [deg], TGO_intpoint_angle [deg] 
-104.24542688838612, 20.491757869276967, 22.48040941379493, -158.8794041513494, 59.15487478844088, 62.52856104942198 
-105.14903388594041, 20.115748499041977, 22.48101430065368, -159.67911499828762, 58.93487772563131, 62.530744760932514 
-106.05094018361842, 19.74078372869351, 22.48160832426284, -160.47525692697613, 58.71635381564813, 62.53292290785219 
-106.9512403501598, 19.366954055023967, 22.48219131667035, -161.26794342426336, 58.49933857263275, 62.535094830529154 
-107.85002753985658, 18.99434930446138, 22.48276312307623, -162.05728441041018, 58.283866880533324, 62.53725987569582 
-108.74739346657753, 18.623058651550693, 22.483323601852103, -162.84338635937718, 58.06997301148063, 62.5394173966533 
-109.64342837916149, 18.253170636636327, 22.48387262454493, -163.62635241487467, 57.85769064316569, 62.54156675344828 
-110.53822103804728, 17.884773182710116, 22.484410075864808, -164.4062825022973, 57.64705287526534, 62.54370731304222 
-111.43185869301755, 17.51795361139039, 22.4849358536571, -165.18327343666857, 57.43809224496036, 62.54583844947335 
-112.32442706194168, 17.152798658000624, 22.48544986885875, -165.9574190267197, 57.230840741588366, 62.547959544011114 
-113.21601031041351, 16.789394485717725, 22.48595204543907, -166.7288101752281, 57.025329820471796, 62.55006998530306 
-114.10669103218632, 16.427826698762264, 22.486442320325043, -167.49753497573994, 56.821590415959506, 62.55216916951428 
-114.99655023031696, 16.068180354604593, 22.486920643311276, -168.26367880580023, 56.619652953718656, 62.55425650045941 
-115.88566729893935, 15.710539975162499, 22.487386976954742, -169.0273244168125, 56.41954736231192, 62.556331389727305 
-116.77412000559399, 15.354989556967967, 22.48784129645451, -169.78855202064776, 56.2213030840932, 62.55839325679799 
-117.66198447404986, 15.001612580281803, 22.488283589516683, -170.547439373121, 56.02494908545399, 62.560441529152804 
-118.54933516756077, 14.650492017136994, 22.48871385620468, -171.30406185445062, 55.83051386645043, 62.5624756423766 
-119.43624487250669, 14.301710338292509, 22.489132108775134, -172.05849254681382, 55.638025469840116, 62.56449504025314 
-120.32278468237682, 13.955349519081386, 22.48953837149969, -172.81080230910752, 55.44751148955629, 62.5664991748533 
-121.2090239820593, 13.611491044137836, 22.48993268047282, -173.56105984902374, 55.258999078645836, 62.568487506615895 
-122.09503043240704, 13.270215910990089, 22.490315083406088, -174.3093317925417, 55.072514956696004, 62.570459504421706 
-122.98086995505847, 12.931604632506495, 22.490685639409143, -175.05568275093998, 54.88808541677417, 62.572414645660466 
-123.8666067174955, 12.595737238184578, 22.491044418757564, -175.800175385426, 54.70573633190334, 62.5743524162912 
-124.75230311832954, 12.262693274273495, 22.491391502648177, -176.54287046947877, 54.52549316109546, 62.57627231089542 
-125.63801977281072, 11.932551802722312, 22.491726982941934, -177.28382694899688, 54.34738095496333, 62.578173832724204 
-126.52381549856209, 11.60539139894784, 22.492050961894794, -178.02310200034134, 54.17142436093135, 62.580056493738375 
-127.40974730154633, 11.281290148417126, 22.492363551877066, -178.76075108635956, 53.99764762806404, 62.58191981464245 
-128.29587036227701, 10.960325642041711, 22.492664875081424, -179.4968280104735, 53.82607461153078, 62.58376332491238 
-129.1822380222932, 10.642574970381798, 22.49295506322014, 179.768615031087, 53.65672877672425, 62.58558656281709 
-130.06890177091958, 10.328114716660728, 22.493234257211892, 179.0355273988284, 53.48963320304946, 62.58738907543396 
-130.95591123234115, 10.017020948591247, 22.493502606858495, 178.3038599612404, 53.32481058739935, 62.5891704186587 
-131.8433141530241, 9.70936920901749, 22.493760270512176, 177.57356504767324, 53.16228324733247, 62.590930157209385 
-132.7311563895209, 9.405234505377777, 22.494007414733588, 176.84459640277623, 53.0020731239675, 62.59266786462505 
-133.61948189670113, 9.104691297995638, 22.494244213941315, 176.11690914243025, 52.84420178460891, 62.59438312325874 
-134.50833271645325, 8.807813487208332, 22.494470850053006, 175.39045971111054, 52.68869042511717, 62.596075524265714 
-135.39774896690773, 8.514674399343905, 22.494687512118958, 174.66520584061703, 52.53555987203686, 62.59774466758634 
-136.28776883223432, 8.2253467715602, 22.494894395948325, 173.94110651011343, 52.38483058449511, 62.59939016192428 
-137.17842855307038, 7.939902735561248, 22.495091703728704, 173.21812190741753, 52.2365226558825, 62.60101162471996 
-138.0697624176404, 7.658413800208566, 22.495279643639403, 172.49621339148771, 52.09065581532816, 62.60260868211967 
-138.96180275362983, 7.380950833047173, 22.495458429459077, 171.77534345605267, 51.947249428979994, 62.60418096894027 
-139.85457992087814, 7.10758404076863, 22.49562828016806, 171.0554756943343, 51.80632250110129, 62.605728128629906 
-140.74812230496042, 6.838382948635418, 22.49578941954616, 170.33657476481366, 51.66789367499348, 62.60724981322461 
-141.6424563117263, 6.573416378893669, 22.49594207576618, 169.61860635799465, 51.53198123375574, 62.60874568330161 
-142.53760636286938, 6.312752428203572, 22.49608648098395, 168.90153716411942, 51.39860310089056, 62.61021540792871 
-143.43359489259964, 6.056458444119217, 22.496222870925237, 168.18533484179264, 51.267776840764824, 62.611658664610644 
-144.33044234549465, 5.8046010006522755, 22.496351484470132, 167.46996798747335, 51.13951965893542, 62.61307513923219 
-145.22816717560352, 5.557245872956334, 22.496472563235535, 166.7554061057944, 51.0138484023479, 62.61446452599855 
-146.12678584688086, 5.31445801117136, 22.496586351156136, 166.0416195806717, 50.89077955941682, 62.61582652737283 
-147.02631283502615, 5.076301513470096, 22.496693094064625, 165.3285796471658, 50.7703292599955, 62.61716085401135 
-147.92676063080404, 4.842839598351086, 22.496793039271527, 164.6162583640621, 50.65251327524339, 62.61846722469631 
-148.82813974492117, 4.6141345762252195, 22.496886435145313, 163.9046285871343, 50.53734701739834, 62.619745366266784 
-149.730458714533, 4.390247820345405, 22.496973530693303, 163.19366394306041, 50.42484553946117, 62.62099501354761 
-150.6337241114534, 4.171239737131338, 22.49705457514392, 162.483338803959, 50.31502353479963, 62.62221590927672 
-151.53794055213737, 3.95716973594388, 22.49712981753085, 161.77362826251655, 50.20789533667854, 62.62340780403107 
-152.44311070950567, 3.748096198365684, 22.497199506279674, 161.0645081076779, 50.10347491772261, 62.62457045615126 
-153.34923532667636, 3.544076447047335, 22.49726388879743, 160.355954800871, 50.0017758893186, 62.62570363166542 
-154.25631323266595, 3.345166714180097, 22.497323211065797, 159.6479454527414, 49.90281150096254, 62.62680710421177 
-155.16434136011927, 3.1514221096587516, 22.49737771723831, 158.94045780037, 49.806594639558526, 62.62788065496107 
-156.07331476512272, 2.962896588999792, 22.497427649242198, 158.23347018495085, 49.71313782867431, 62.62892407253847 
-156.98322664915142, 2.779642921082281, 22.49747324638531, 157.52696152990518, 49.62245322775958, 62.629937152945196 
-157.8940683831963, 2.6017126557801524, 22.49751474496879, 156.8209113194101, 49.53455263133227, 62.63091969948016 
-158.80582953411158, 2.4291560915565125, 22.4975523779058, 156.11529957732017, 49.44944746813787, 62.63187152266174 
-159.71849789321783, 2.262022243091817, 22.49758637434701, 155.41010684646164, 49.367148800287104, 62.6327924401502 
-160.63205950718992, 2.1003588090188234, 22.497616959313174, 154.70531416827973, 49.28766732237636, 62.63368227667037 
-161.5464987112525, 1.9442121398386047, 22.49764435333541, 154.0009030628203, 49.21101336059593, 62.634540863935264 
-162.4617981647, 1.7936272060923721, 22.497668772103594, 153.2968555090277, 49.13719687183028, 62.63536804057057 
-163.37793888875055, 1.6486475668645502, 22.497690426123313, 152.59315392534143, 49.0662274427547, 62.63616365204034 
-164.29490030673614, 1.5093153386929614, 22.49770952038187, 151.8897811505751, 48.998114288932584, 62.63692755057382 
-165.21266028662507, 1.3756711649621072, 22.497726254023846, 151.18672042506174, 48.932866253917126, 62.63765959509392 
-166.13119518586328, 1.2477541858552534, 22.49774082003644, 150.4839553720501, 48.87049180836143, 62.6383596511472 
-167.05047989851582, 1.1256020089408507, 22.497753404945318, 149.78146997933695, 48.81099904914049, 62.63902759083565 
-167.97048790467983, 1.00925068046802, 22.49776418852101, 149.0792485811214, 48.754395698488715, 62.639663292750505 
-168.89119132213395, 0.8987346574450192, 22.497773343496586, 148.37727584006777, 48.70068910315611, 62.640266641907886 
-169.8125609601803, 0.7940867805734655, 22.49778103529676, 147.67553672956328, 48.649886233586486, 62.64083752968715 
-170.73456637562785, 0.6953382481094804, 22.49778742177884, 146.97401651615837, 48.60199368312053, 62.64137585377104 
-171.65717593085745, 0.6025185907214292, 22.497792652985957, 146.27270074217725, 48.55701766722668, 62.64188151808884 
-172.58035685390135, 0.5156556474117736, 22.49779687091273, 145.5715752084867, 48.51496402276246, 62.64235443276168 
-173.5040753004629, 0.43477554256842377, 22.497800209283845, 144.87062595741216, 48.47583820726878, 62.64279451405116 
-174.4282964177929, 0.35990266420833433, 22.49780279334572, 144.1698392557894, 48.43964529829964, 62.64320168431026 
-175.3529844103342, 0.2910596434734833, 22.497804739671647, 143.46920157814168, 48.40638999278943, 62.64357587193758 
-176.27810260703663, 0.22826733543618385, 22.49780615598054, 142.76869958997148, 48.37607660645982, 62.64391701133451 
-177.20361353023964, 0.17154480126756555, 22.497807140969613, 142.06832013115735, 48.34870907326826, 62.644225042865564 
-178.12947896601233, 0.12090929181943656, 22.49780778416123, 141.3680501994451, 48.32429094489977, 62.64449991282209 
-179.05566003583522, 0.07637623266614366, 22.497808165764077, 140.66787693402495, 48.30282539030361, 62.64474157338901 
-179.98211726950237, 0.03795921064910057, 22.497808356548795, 139.9677875991841, 48.28431519527632, 62.644949982615216 
179.09118932088288, 0.00566996196253439, 22.497808417738444, 139.26776956802655, 48.26876276209238, 62.64512510438731 
178.16430016594927, -0.020481638185321446, 22.497808400913634, 138.56781030625027, 48.25617010918362, 62.64526690840697 
177.2372560632718, -0.04048758430555861, 22.497808347932754, 137.86789735597372, 48.246538870868356, 62.64537537017161 
176.31009810089668, -0.05434174773131128, 22.497808290867187, 137.1680183196026, 48.239870297131034, 62.64545047095886 
175.3828675803199, -0.06203988206910584, 22.49780825195173, 136.468160843728, 48.23616525345321, 62.64549219781478 
174.45560593906185, -0.06357962698296253, 22.497808243550203, 135.76831260304812, 48.23542422069604, 62.64550054354533 
173.5283546729853, -0.05896051030031425, 22.497808268136314, 135.0684612843044, 48.23764729503505, 62.64547550671202 
172.60115525850242, -0.04818394843347401, 22.49780831828986, 134.36859457022388, 48.24283418794697, 62.64541709163068 
171.67404907481904, -0.03125324511550252, 22.49780837670821, 133.66870012346004, 48.25098422624902, 62.645325308374595 
170.74707732636256, -0.008173588454100307, 22.497808416233003, 132.96876557052227, 48.26209635219028, 62.64520017278058 
169.8202809655405, 0.021047953687792536, 22.49780839989221, 132.26877848568716, 48.276169123594975, 62.645041706459416 
168.89370061597432, 0.05640243997131565, 22.4978082809573, 131.56872637488192, 48.29320071405735, 62.644849936809386 
167.96737649635145, 0.09787906350258048, 22.497808003015518, 130.86859665953205, 48.31318891318724, 62.644624897033744 
167.041348345036, 0.1454651613722083, 22.49780750005724, 130.16837666036434, 48.33613112690598, 62.644366626161684 
166.1156553455748, 0.19914622578585212, 22.497806696578163, 129.46805358115662, 48.3620243777915, 62.64407516907277 
165.19033605323241, 0.25890591675362185, 22.497805507696338, 128.76761449242477, 48.39086530547157, 62.64375057652494 
164.26542832268373, 0.32472607630199357, 22.49780383928369, 128.06704631503894, 48.42265016706424, 62.64339290518595 
163.3409692369882, 0.3965867441675125, 22.49780158811213, 127.36633580375897, 48.45737483766364, 62.64300221766811 
162.41699503796428, 0.47446617492767523, 22.497798642013784, 126.66546953067945, 48.49503481087016, 62.64257858256621 
161.49354105807754, 0.5583408565205427, 22.497794880055263, 125.96443386857531, 48.53562519936294, 62.642122074498936 
160.5706416539481, 0.6481855301010395, 22.49779017272581, 125.2632149741376, 48.57914073551303, 62.64163277415313 
159.64833014157864, 0.743973211178472, 22.497784382138914, 124.5617987710892, 48.62557577203515, 62.641110768331046 
158.7266387333957, 0.8456752119767437, 22.49777736224721, 123.86017093317008, 48.67492428267596, 62.64055615000092 
157.8055984771901, 0.9532611649557828, 22.497768959070385, 123.15831686698102, 48.72717986293664, 62.63996901834974 
156.8852391970358, 1.0666990474300502, 22.49775901093583, 122.45622169467491, 48.78233573082696, 62.639349478839144 
155.96558943625774, 1.1859552072176618, 22.49774734873151, 121.75387023648358, 48.840384727648775, 62.638697643263825 
155.04667640251242, 1.3109943892515301, 22.497733796171033, 121.05124699306835, 48.90131931880568, 62.63801362981222 
154.12852591503605, 1.4417797630820297, 22.497718170070304, 120.34833612768213, 48.96513159463627, 62.637297563129515 
153.21116235410852, 1.578272951199176, 22.497700280635527, 119.64512144812937, 49.03181327126762, 62.6365495743831 
152.29460861277227, 1.7204340581009774, 22.497679931762132, 118.94158638851131, 49.101355691486, 62.63576980132954 
151.3788860508377, 1.8682217000335901, 22.497656921344202, 118.23771399074211, 49.17374982562125, 62.63495838838393 
150.46401445119943, 2.0215930353280744, 22.49763104159415, 117.53348688582139, 49.24898627244138, 62.63411548669058 
149.5500119784791, 2.180503795258168, 22.497602079371905, 116.82888727484846, 49.32705526005351, 62.63324125419539 
148.6368951400028, 2.344908315343138, 22.497569816523555, 116.12389690976211, 49.40794664680749, 62.63233585571963 
147.72467874911516, 2.5147595670197895, 22.49753403022868, 115.41849707379002, 49.49164992219787, 62.6313994630349 
146.8133758908233, 2.690009189607952, 22.497494493356132, 114.71266856159068, 49.5781542077603, 62.63043225493905 
145.90299788975733, 2.8706075224943355, 22.49745097482759, 114.00639165907013, 49.66744825795768, 62.629434417333044 
144.99355428042838, 3.0565036374601093, 22.497403239988667, 113.29964612285528, 49.759520461051714, 62.628406143298484 
144.08505277975712, 3.2476453710787805, 22.49735105098681, 112.59241115940412, 49.854358839955104, 62.62734763317554 
143.17749926184152, 3.443979357111755, 22.497294167155694, 111.88466540373366, 49.95195105305926, 62.62625909464125 
142.2708977349248, 3.645451058830486, 22.497232345405475, 111.17638689774382, 50.05228439503276, 62.62514074278783 
141.3652503205215, 3.852004801195464, 22.49716534061848, 110.46755306811629, 50.15534579758503, 62.62399280020108 
140.46055723465247, 4.0635838028239935, 22.497092906049723, 109.7581407037652, 50.261121830189914, 62.62281549703809 
139.5568167711364, 4.280130207680409, 22.497014793731807, 109.04812593281639, 50.36959870076336, 62.62160907110493 
138.6540252868812, 4.501585116424476, 22.496930754883614, 108.33748419909013, 50.480762256289516, 62.620373767933344 
137.7521771891137, 4.727888617355499, 22.496840540322236, 107.62619023806226, 50.59459798338901, 62.619109840856574 
136.85126492448478, 4.958979816892055, 22.496743900877693, 106.91421805227634, 50.71109100882326, 62.61781755108399 
135.95127896998142, 5.194796869529414, 22.496640587809768, 106.20154088617923, 50.8302260999283, 62.6164971677747 
135.05220782557774, 5.43527700721893, 22.496530353226532, 105.48813120035102, 50.951987664971355, 62.6151489681093 
134.15403800855225, 5.680356568116304, 22.496412950503846, 104.77396064509865, 51.07635975342333, 62.613773237359965 
133.25675404939864, 5.929971024647815, 22.49628813470551, 104.05900003338196, 51.20332605613992, 62.61237026895876 
132.3603384892553, 6.184055010846369, 22.49615566300329, 103.34321931303873, 51.33286990544404, 62.610940364563575 
131.46477187877827, 6.442542348911411, 22.496015295096395, 102.62658753827479, 51.46497427510167, 62.609483834121754 
130.5700327783817, 6.705366074949678, 22.495866793629816, 101.90907284038283, 51.59962178018349, 62.60800099593131 
129.67609775976976, 6.972458463855912, 22.495709924610956, 101.19064239765304, 51.73679467680378, 62.60649217669902 
128.7829414086842, 7.2437510532955836, 22.495544457824025, 100.47126240443615, 51.87647486172816, 62.60495771159582 
127.89053632879278, 7.519174666753861, 22.495370167241695, 99.7508980393187, 52.0186438718414, 62.60339794430906 
126.99885314664401, 7.798659435617875, 22.495186831433333, 99.02951343236796, 52.16328288346605, 62.60181322709095 
126.10786051761602, 8.082134820261707, 22.49499423396943, 98.30707163140251, 52.3103727115225, 62.600203920803864 
125.21752513278771, 8.36952963010585, 22.49479216382162, 97.58353456724271, 52.4598938085205, 62.59857039496157 
124.32781172666367, 8.660772042625632, 22.494580415757763, 96.85886301789307, 52.611826263372166, 62.59691302776652 
123.43868308568574, 8.955789621285145, 22.494358790731503, 96.13301657160707, 52.766149800015604, 62.595232206143095 
122.55010005746647, 9.254509332375784, 22.494127096265974, 95.4059535887821, 52.92284377583838, 62.59352832576626 
121.66202156068394, 9.556857560740555, 22.49388514683093, 94.67763116263126, 53.08188717988934, 62.59180179108578 
120.77440459557815, 9.862760124367894, 22.49363276421291, 93.9480050785753, 53.24325863086685, 62.590053015345674 
119.88720425499534, 10.172142287840332, 22.49336977787795, 93.21702977229691, 53.406936374871265, 62.588282420598716 
119.0003737359273, 10.484928774626077, 22.493096025326317, 92.48465828639607, 53.57289828290863, 62.58649043771585 
118.1138643514992, 10.801043778203095, 22.49281135243881, 91.75084222558388, 53.74112184813237, 62.58467750639031 
117.22762554336137, 11.120410972007484, 22.492515613814174, 91.01553171034901, 53.911584182809, 62.58284407513647 
116.34160489444581, 11.442953518199985, 22.492208673097146, 90.27867532902856, 54.08426201499331, 62.580990601282686 
115.45574814205285, 11.768594075245842, 22.491890403296754, 89.54022008821288, 54.2591316848981, 62.5791175509589 
114.56999919123672, 12.097254804305706, 22.491560687094303, 88.80011136141047, 54.436169140942475, 62.57722539907793 
113.68430012846535, 12.428857374436218, 22.491219417140876, 88.05829283589726, 54.61534993546237, 62.57531462931096 
112.7985912355332, 12.763322966601468, 22.49086649634365, 87.3147064576705, 54.79664922006619, 62.57338573405671 
111.91281100371215, 13.100572276497195, 22.490501838140826, 86.56929237442628, 54.980041740617494, 62.571439214404236 
111.0268961481302, 13.440525516192162, 22.490125366764836, 85.82198887647489, 55.16550183182617, 62.56947558008957 
110.1407816223739, 13.783102414591852, 22.48973701749327, 85.07273233550681, 55.35300341142832, 62.5674953494455 
109.25440063331529, 14.128222216731643, 22.489336736887296, 84.3214571411185, 55.542519973934525, 62.56549904934463 
108.36768465617095, 14.47580368190804, 22.488924483017335, 83.56809563500344, 55.734024583925084, 62.56348721513602 
107.48056344980635, 14.825765080657684, 22.488500225675477, 82.81257804271272, 55.92748986886965, 62.56146039057452 
106.59296507230465, 15.178024190595892, 22.488063946574428, 82.0548324028839, 56.122888011447934, 62.55941912774338 
105.70481589682645, 15.532498291127142, 22.487615639532738, 81.29478449383652, 56.32019074134687, 62.55736398696968 
104.81604062779253, 15.889104157042294, 22.487155310646042, 80.53235775742704, 56.51936932650849, 62.55529553673275 
