# MEX_intpoint_lon [deg], MEX_intpoint_lat [deg], MEX_intpoint_angle [deg], TGO_intpoint_lon [deg], TGO_intpoint_lat [deg], TGO_intpoint_angle [deg] 
-103.82262935713152, 20.392409303404353, 22.231660350309863, -144.78216123262038, 58.94930364906892, 62.530846443626174 
-104.73372068272015, 20.02947660885582, 22.23223494870313, -145.57049576083563, 58.72321058145322, 62.53309969493331 
-105.64312639587294, 19.667517063020245, 22.232799531242332, -146.35535528607323, 58.498659174667196, 62.535347020957595 
-106.55093562095232, 19.30661964129948, 22.233353937917844, -147.1368534612324, 58.27568466311882, 62.537587741405595 
-107.45723622945648, 18.946872664341626, 22.233898020844393, -147.9151002515082, 58.054321667128036, 62.53982118279485 
-108.36211481015111, 18.588363813458685, 22.23443164428065, -148.69020206442343, 57.83460421116386, 62.542046678643125 
-109.26565664068247, 18.231180145383753, 22.234954684634104, -149.46226187488784, 57.616565741049214, 62.54426356964967 
-110.16794566054922, 17.875408106329488, 22.2354670304514, -150.23137934546054, 57.40023914018442, 62.54647120386881 
-111.06906444531998, 17.521133545312136, 22.235968582394072, -150.9976509419899, 57.18565674483644, 62.54866893687515 
-111.96909418199022, 17.168441726707666, 22.23645925319985, -151.76117004480145, 56.97285035854012, 62.550856131921144 
-112.86811464538079, 16.8174173420084, 22.236938967629513, -152.5220270556022, 56.761851265653895, 62.55303216008651 
-113.76620417548652, 16.468144520750737, 22.237407662399544, -153.28030950026485, 56.55269024411152, 62.55519640041969 
-114.66343965569214, 16.120706840586468, 22.237865286100597, -154.0361021276527, 56.34539757740859, 62.55734824007142 
-115.55989649177897, 15.775187336471806, 22.23831179910189, -154.78948700464122, 56.14000306586089, 62.55948707442036 
-116.45564859165307, 15.431668508950375, 22.23874717344192, -155.54054360748796, 55.93653603716995, 62.561612307190735 
-117.35076834573262, 15.09023233150766, 22.239171392705337, -156.28934890969842, 55.73502535632918, 62.56372335056237 
-118.24532660793892, 14.750960256976532, 22.239584451886394, -157.0359774665304, 55.53549943490243, 62.56581962527279 
-119.13939267724197, 14.413933222974629, 22.23998635723917, -157.78050149627572, 55.33798623970543, 62.56790056071163 
-120.03303427971763, 14.079231656356445, 22.240377126114716, -158.5229909584521, 55.14251330091882, 62.569965595007346 
-120.92631755108046, 13.746935476663845, 22.240756786785315, -159.26351362903583, 54.94910771966018, 62.57201417510663 
-121.8193070196616, 13.41712409856119, 22.24112537825638, -160.00213517285806, 54.75779617504127, 62.574045756846004 
-122.71206558980725, 13.089876433241772, 22.241482950065837, -160.7389192132872, 54.568604930735475, 62.57605980501629 
-123.60465452567934, 12.765270888794618, 22.241829562071704, -161.47392739931084, 54.381559841078925, 62.57805579341978 
-124.49713343544526, 12.443385369521673, 22.242165284227863, -162.20721947013107, 54.19668635672817, 62.58003320492006 
-125.38956025584922, 12.124297274197307, 22.24249019634851, -162.93885331737886, 54.014009529895766, 62.581991531485166 
-126.28199123716279, 11.808083493263405, 22.242804387861504, -163.6688850450517, 53.83355401918459, 62.58393027422348 
-127.17448092851814, 11.49482040495486, 22.243107957550986, -164.39736902727333, 53.65534409404037, 62.58584894341303 
-128.06708216363094, 11.184583870352181, 22.243401013289763, -165.12435796397122, 53.47940363884124, 62.58774705852419 
-128.9598460469268, 10.877449227359127, 22.243683671761524, -165.84990293456332, 53.305756156642325, 62.58962414823572 
-129.85282194008755, 10.573491283605376, 22.243956058173545, -166.5740534497418, 53.134424772592595, 62.59147975044475 
-130.74605744904017, 10.272784308275517, 22.24421830596014, -167.29685750143852, 52.96543223704009, 62.5933134122702 
-131.63959841141386, 9.975402022867899, 22.244470556477303, -168.01836161105336, 52.798800928341755, 62.595124690050696 
-132.533488884496, 9.681417590888051, 22.244712958688925, -168.7386108760226, 52.63455285539247, 62.59691314933629 
-133.4277711337208, 9.390903606483864, 22.244945668844977, -169.45764901480214, 52.47270965988805, 62.59867836487445 
-134.32248562172921, 9.103932082031076, 22.245168850152226, -170.1755184103375, 52.31329261833579, 62.600419920591044 
-135.21767099804075, 8.820574434679841, 22.245382672437746, -170.89226015208797, 52.1563226438263, 62.60213740956547 
-136.113364089383, 8.540901471874934, 22.245587311805803, -171.607914076672, 52.00182028757874, 62.603830434001196 
-137.00959989072592, 8.264983375864412, 22.245782950288532, -172.3225188071952, 51.84980574027238, 62.60549860519089 
-137.90641155707195, 7.9928896872133945, 22.245969775490817, -173.03611179132255, 51.70029883317585, 62.60714154347733 
-138.8038303960554, 7.724689287341651, 22.246147980230003, -173.74872933815206, 51.55331903908563, 62.60875887820958 
-139.70188586140694, 7.460450380106298, 22.246317762170683, -174.46040665394474, 51.40888547308457, 62.61035024769474 
-140.6006055473407, 7.200240472452397, 22.246479323455265, -175.17117787676472, 51.26701689313115, 62.61191529914588 
-141.5000151839241, 6.9441263541571345, 22.24663287033072, -175.8810761100797, 51.127731700489385, 62.61345368862603 
-142.40013863349122, 6.692174076695022, 22.246778612771955, -176.59013345537036, 50.99104794000932, 62.61496508098837 
-143.3009978881627, 6.444448931254023, 22.246916764102362, -177.2983810437957, 50.85698330026743, 62.616449149813135 
-144.2026130685353, 6.201015425934776, 22.24704754061212, -178.00584906695826, 50.72555511357618, 62.617905577341254 
-145.10500242360544, 5.961937262167367, 22.247171161174588, -178.71256680681216, 50.596780355871196, 62.61933405440503 
-146.00818233199084, 5.7272773103824175, 22.247287846861482, -179.41856266475506, 50.47067564648503, 62.62073428035593 
-146.91216730451535, 5.497097584975337, 22.247397820557083, 179.87613581005743, 50.34725724781512, 62.62210596298994 
-147.81696998822034, 5.271459218605329, 22.2475013065724, 179.17150189313693, 50.22654106489442, 62.62344881847058 
-148.72260117186661, 5.050422435872367, 22.247598530259296, 178.46750965779165, 50.10854264487191, 62.62476257124983 
-149.62906979298876, 4.834046526418182, 22.247689717625526, 177.76413394892538, 49.99327717641066, 62.62604695398711 
-150.53638294656338, 4.622389817499006, 22.247775094950935, 177.06135035747332, 49.88075948901042, 62.627301707466515 
-151.44454589534996, 4.415509646080227, 22.247854888405403, 176.3591351954435, 49.77100405226194, 62.62852658051308 
-152.3535620819617, 4.213462330505022, 22.247929323669027, 175.65746547153367, 49.66402497503918, 62.62972132990726 
-153.26343314272088, 4.01630314179118, 22.247998625555095, 174.95631886729453, 49.55983600463657, 62.63088572029878 
-154.17415892335006, 3.8240862746119517, 22.24806301763628, 174.25567371381248, 49.45845052585696, 62.63201952411968 
-155.08573749654857, 3.6368648180189016, 22.248122721874548, 173.55550896888496, 49.359881560056735, 62.63312252149669 
-155.99816518149805, 3.454690725966151, 22.248177958255383, 172.855804194663, 49.26414176415364, 62.63419450016351 
-156.9114365653388, 3.2776147876972197, 22.248228944426597, 172.1565395357376, 49.17124342960335, 62.63523525537283 
-157.82554452665357, 3.105686598056822, 22.24827589534247, 171.45769569764613, 49.08119848134973, 62.63624458980833 
-158.74048026099055, 2.9389545277916653, 22.248319022913464, 170.75925392577682, 48.99401847675463, 62.6372223134974 
-159.65623330845338, 2.7774656939050146, 22.248358535662074, 170.06119598465025, 48.90971460451185, 62.63816824372399 
-160.57279158337977, 2.621265930131136, 22.24839463838528, 169.3635041375574, 48.82829768355041, 62.639082204942326 
-161.49014140612513, 2.4703997575963283, 22.248427531824035, 168.6661611265349, 48.74977816193198, 62.639964028691665 
-162.40826753696257, 2.324910355733996, 22.24845741234018, 167.9691501526589, 48.6741661157467, 62.64081355351201 
-163.32715321210338, 2.1848395335214565, 22.248484471601266, 167.27245485663985, 48.6014712480121, 62.641630624861264 
-164.24678018183707, 2.0502277011067034, 22.248508896273744, 166.57605929970043, 48.53170288757919, 62.64241509503368 
-165.1671287507825, 1.9211138418931009, 22.248530867724767, 165.87994794472132, 48.4648699880498, 62.64316682308035 
-166.08817782023655, 1.7975354851499155, 22.24855056173317, 165.18410563763825, 48.40098112670915, 62.64388567473121 
-167.00990493259815, 1.6795286792160835, 22.24856814820995, 164.48851758907549, 48.3400445034772, 62.64457152231928 
-167.93228631784083, 1.5671279653641188, 22.248583790928574, 163.79316935620125, 48.282067939882616, 62.645224244706895 
-168.8552969419982, 1.460366352390008, 22.248597647265548, 163.0980468247915, 48.22705887806239, 62.64584372721469 
-169.77891055762103, 1.3592752919938862, 22.248609867951522, 162.40313619148833, 48.17502437979073, 62.64642986155263 
-170.7030997561573, 1.2638846550150264, 22.248620596833305, 161.70842394623995, 48.12597112554009, 62.64698254575393 
-171.62783602220034, 1.1742227085829398, 22.24862997064709, 161.01389685491057, 48.079905413577286, 62.64750168411188 
-172.55308978954184, 1.090316094244724, 22.2486381188032, 160.31954194204764, 48.03683315909744, 62.647987187119384 
-173.47883049896208, 1.0121898071265516, 22.248645163182644, 159.6253464737952, 47.99675989339851, 62.64843897141168 
-174.40502665768136, 0.9398671761851268, 22.248651217945707, 158.93129794094204, 47.95969076309857, 62.648856959712276 
-175.33164590039163, 0.8733698456023495, 22.24865638935287, 158.23738404209456, 47.925630529398425, 62.64924108078212 
-176.25865505178, 0.8127177573735668, 22.248660775598374, 157.5435926669627, 47.89458356739141, 62.64959126937215 
-177.1860201904519, 0.7579291351372142, 22.248664466656408, 156.84991187975035, 47.86655386542256, 62.64990746617947 
-178.11370671415347, 0.709020469290128, 22.24866754414047, 156.1563299026391, 47.841545024498814, 62.650189617807065 
-179.04167940619067, 0.6660065034298889, 22.248670081175767, 155.46283509935682, 47.81956025775191, 62.65043767672711 
-179.96990250293544, 0.6289002221617795, 22.24867214228496, 154.769415958821, 47.80060238995552, 62.650651601248114 
179.10166023769426, 0.5977128403044474, 22.248673783287558, 154.07606107884828, 47.78467385709793, 62.65083135548604 
178.17304546689698, 0.5724537935246022, 22.248675051212725, 153.38275914992096, 47.77177670601131, 62.65097690933899 
177.2442901749143, 0.5531307304270796, 22.248675984226015, 152.68949893900188, 47.76191259405879, 62.65108823846611 
176.31543162034453, 0.5397495061226174, 22.248676611569838, 151.99626927338915, 47.75508278888002, 62.651165324270266 
175.38650725896937, 0.5323141772915659, 22.24867695351789, 151.30305902460196, 47.75128816819591, 62.65120815388496 
174.45755467222293, 0.5308269987575029, 22.248677021343596, 150.60985709228933, 47.75052921967317, 62.6512167201651 
173.52861149543094, 0.5352884215805539, 22.248676817302528, 149.91665238815332, 47.75280604084891, 62.65119102168195 
172.5997153459526, 0.5456970926757746, 22.24867633462886, 149.22343381987844, 47.758118339115555, 62.651131062722 
171.67090375135461, 0.5620498559576987, 22.248675557545965, 148.53019027505914, 47.76646543176612, 62.6510368532902 
170.742214077749, 0.5843417550078516, 22.248674461290967, 147.83691060511666, 47.77784624609966, 62.65090840911694 
169.81368345842492, 0.6125660372575269, 22.248673012153315, 147.14358360919755, 47.792259319586634, 62.65074575166932 
168.88534872290288, 0.6467141596740966, 22.248671167527338, 146.4501980180448, 47.80970280009394, 62.65054890816632 
167.9572463265392, 0.686775795934604, 22.248668875978677, 145.7567424778339, 47.83017444616858, 62.650317911598 
167.02941228080536, 0.732738845066454, 22.248666077324522, 145.06320553396438, 47.8536716273797, 62.65005280074876 
166.1018820843642, 0.784589441530745, 22.24866270272746, 144.36957561479917, 47.88019132471765, 62.64975362022436 
165.17469065506256, 0.842311966720011, 22.24865867480307, 143.67584101534206, 47.90973013104933, 62.64942042048288 
164.24787226295484, 0.9058890618380409, 22.248653907740717, 142.9819898808448, 47.94228425162829, 62.649053257869504 
163.32146046446874, 0.9753016421259931, 22.24864830743778, 142.28801019033443, 47.97784950465836, 62.648652194654865 
162.39548803781983, 1.0505289123952974, 22.24864177164688, 141.59388974005162, 48.01642132190926, 62.64821729907737 
161.46998691977632, 1.1315483838244353, 22.248634190136023, 140.89961612679002, 48.05799474938228, 62.64774864538866 
160.54498814387014, 1.2183358919736202, 22.24862544486141, 140.20517673112704, 48.102564448024346, 62.64724631390282 
159.62052178014468, 1.3108656159682581, 22.24861541015269, 139.51055870053557, 48.150124694488355, 62.64671039104874 
158.69661687652444, 1.4091100987992664, 22.248603952910447, 138.8157489323661, 48.20066938193754, 62.64614096942603 
157.77330140188403, 1.5130402686857702, 22.24859093281551, 138.12073405668852, 48.25419202089161, 62.6455381478637 
156.85060219088973, 1.6226254614432687, 22.248576202550108, 137.42550041898207, 48.31068574011196, 62.64490203148201 
155.92854489067784, 1.7378334437982068, 22.24855960803024, 136.7300340626618, 48.370143287523554, 62.6442327317573 
155.00715390942986, 1.858630437588, 22.248540988649133, 136.03432071142942, 48.43255703117027, 62.64353036658932 
154.0864523668953, 1.9849811447837473, 22.248520177531475, 135.33834575143592, 48.497918960201076, 62.642795060371256 
153.166462046908, 2.1168487732715193, 22.248497001798025, 134.64209421324287, 48.566220685883636, 62.64202694406236 
152.247203351934, 2.2541950633268217, 22.24847128284022, 133.94555075356868, 48.637453442642055, 62.6412261552625 
151.32869525968192, 2.3969803147158504, 22.24844283660457, 133.24869963680578, 48.71160808911547, 62.640392838289145 
150.41095528180117, 2.545163414356305, 22.248411473886257, 132.5515247162939, 48.78867510923348, 62.63952714425614 
149.49399942468466, 2.698701864470217, 22.24837700063168, 131.85400941533388, 48.86864461330496, 62.63862923115425 
148.57784215238811, 2.8575518111606377, 22.24833921824956, 131.15613670792615, 48.95150633911607, 62.63769926393341 
147.66249635167003, 3.0216680733441987, 22.248297923930057, 130.4578890992173, 49.03724965303348, 62.636737414586264 
146.74797329915086, 3.1910041719715245, 22.248252910971672, 129.75924860563686, 49.12586355110814, 62.635743862233014 
145.8342826305834, 3.3655123594678975, 22.24820396911532, 129.0601967347062, 49.21733666017575, 62.63471879320715 
144.92143231222124, 3.5451436493270254, 22.248150884885213, 128.3607144645011, 49.311657238948534, 62.63366240114222 
144.00942861426506, 3.7298478457915714, 22.24809344193615, 127.66078222274697, 49.40881317909414, 62.632574887059036 
143.09827608636311, 3.9195735735549024, 22.248031421406665, 126.96037986552739, 49.50879200629614, 62.63145645945343 
142.18797753513536, 4.114268307419662, 22.247964602277577, 126.25948665558286, 49.61158088129136, 62.63030733438426 
141.27853400368753, 4.313878401849968, 22.247892761735578, 125.55808124017864, 49.717166600878365, 62.6291277355611 
140.3699447530752, 4.518349120355435, 22.247815675541176, 124.85614162851654, 49.8255355988917, 62.62791789443221 
139.46220724567627, 4.727624664646573, 22.247733118400735, 124.15364516866731, 49.936673947136065, 62.626678050271586 
138.55531713042348, 4.941648203503155, 22.247644864341954, 123.45056852399688, 50.05056735627459, 62.62540845026585 
137.64926822984813, 5.1603619012983435, 22.247550687092346, 122.74688764906004, 50.167201176664776, 62.62410934959981 
136.74405252888147, 5.383706946123656, 22.247450360460245, 122.0425777649333, 50.286560399136086, 62.62278101154129 
135.83966016535695, 5.611623577461716, 22.247343658717757, 121.33761333395717, 50.408629655702384, 62.621423707524336 
134.93607942215684, 5.844051113355453, 22.247230356985263, 120.63196803385776, 50.53339322020245, 62.62003771723123 
134.03329672094165, 6.080927977025019, 22.24711023161688, 119.9256147312151, 50.660835008861596, 62.61862332867243 
133.13129661740135, 6.322191722885344, 22.246983060586363, 119.2185254542448, 50.790938580767076, 62.61718083826472 
132.23006179796522, 6.567779061919866, 22.246848623873014, 118.51067136485796, 50.923687138249704, 62.61571055090705 
131.32957307790684, 6.8176258863678, 22.24670670384702, 117.8020227299628, 51.05906352716404, 62.61421278005393 
130.42980940077925, 7.0716672936850316, 22.246557085653755, 117.09254889196966, 51.19705023705899, 62.61268784778634 
129.53074783911669, 7.329837609740481, 22.246399557596472, 116.38221823845963, 51.33762940123042, 62.611136084879426 
128.63236359633777, 7.592070411212682, 22.24623391151697, 115.67099817097457, 51.48078279664741, 62.60955783086742 
127.73463000978673, 7.858298547152909, 22.246059943173695, 114.95885507288557, 51.6264918437429, 62.60795343410505 
126.83751855484955, 8.128454159684127, 22.245877452616686, 114.24575427629395, 51.774737606059674, 62.606323251825415 
125.94099885008306, 8.402468703806912, 22.245686244559078, 113.53166002791711, 51.92550078974205, 62.60466765019418 
125.04503866329657, 8.680272966285806, 22.245486128744396, 112.81653545391008, 52.07876174286331, 62.602987004359704 
124.1496039185269, 8.961797083591993, 22.245276920309394, 112.10034252357026, 52.234500454578466, 62.60128169849906 
123.25465870385074, 9.24697055888001, 22.245058440141847, 111.38304201187178, 52.39269655409182, 62.5995521258595 
122.36016527997845, 9.535722277978849, 22.24483051523278, 110.66459346077269, 52.55332930942804, 62.597798688795635 
121.46608408957886, 9.827980524379416, 22.2445929790228, 109.94495513923594, 52.71637762599517, 62.596021798801374 
120.57237376728409, 10.123672993202884, 22.24434567174191, 109.2240840019026, 52.88182004492775, 62.59422187653736 
119.67899115032921, 10.42272680413609, 22.244088440742477, 108.50193564635326, 53.04963474119721, 62.5923993518527 
118.78589128978291, 10.725068513322448, 22.243821140824835, 107.77846426889016, 53.21979952147682, 62.590554663801726 
117.89302746232961, 11.030624124198642, 22.243543634555106, 107.05362261877038, 53.392291821747435, 62.58868826065493 
117.00035118256716, 11.339319097269158, 22.243255792574878, 106.32736195081718, 53.56708870462983, 62.586800599904464 
116.10781221578715, 11.65107835881297, 22.242957493902157, 105.59963197633289, 53.74416685642927, 62.584892148263165 
115.21535859121062, 11.965826308517931, 22.24264862622338, 104.87038081223473, 53.92350258387628, 62.582963381658075 
114.32293661565382, 12.283486826040773, 22.242329086175975, 104.13955492833021, 54.105071810548175, 62.58101478521744 
113.43049088760569, 12.603983276491778, 22.241998779621106, 103.40709909264638, 54.288850072954105, 62.57904685325128 
112.53796431170088, 12.927238514845483, 22.241657621906263, 102.67295631472278, 54.47481251626631, 62.577060089225455 
111.64529811357876, 13.253174889279753, 22.241305538117242, 101.93706778677507, 54.662933889679145, 62.57505500572915 
110.75243185512235, 13.581714243447834, 22.240942463319353, 101.19937282263147, 54.85318854137661, 62.57303212443515 
109.85930345007719, 13.912777917689036, 22.240568342787327, 100.45980879434131, 55.045550413088364, 62.570991976053605 
108.96584918005499, 14.246286749185595, 22.240183132223674, 99.7183110663499, 55.23999303421307, 62.5689351002785 
108.07200371093187, 14.582161071074784, 22.239786797965245, 98.97481292713067, 55.43648951548701, 62.566862045726644 
107.1777001096577, 14.920320710526578, 22.239379317177622, 98.22924551816058, 55.635012542174834, 62.564773369870004 
106.28286986149718, 15.260684985799212, 22.238960678037092, 97.48153776012086, 55.83553436675805, 62.56266963895982 
105.38744288773083, 15.60317270228588, 22.238530879899912, 96.7316162762008, 56.03802680109583, 62.56055142794384 
104.49134756384844, 15.947702147568034, 22.23808993345874, 95.97940531237712, 56.242461208031386, 62.55841932037574 
