# MEX_intpoint_lon [deg], MEX_intpoint_lat [deg], MEX_intpoint_angle [deg], TGO_intpoint_lon [deg], TGO_intpoint_lat [deg], TGO_intpoint_angle [deg] 
-103.80570728768382, 20.38837900784621, 22.221884187674764, -144.27524453011182, 58.93270639165106, 62.53107945213709 
-104.71708845954522, 20.025966283986314, 22.222457598305585, -145.06266772156073, 58.70613264770748, 62.53333822385063 
-105.62678475602314, 19.664523922234917, 22.223021025849036, -145.84662389848964, 58.48110598616406, 62.53559104107063 
-106.5348850853377, 19.304140833874097, 22.223574310607628, -146.62722670487372, 58.25766161719614, 62.5378372218663 
-107.44147710910504, 18.944905276133213, 22.2241173049685, -147.40458608830522, 58.03583413830681, 62.54007609115233 
-108.34664721233091, 18.58690486748693, 22.22464987342297, -148.17880843076267, 57.8156575525449, 62.542306980878585 
-109.25048047488922, 18.230226602297826, 22.22517189257152, -148.94999667434996, 57.59716528568865, 62.544529230211786 
-110.15306064436287, 17.874956864765622, 22.22568325111416, -149.71825044218525, 57.380390202445916, 62.54674218570925 
-111.05447011013507, 17.521181442147128, 22.22618384982634, -150.483666154618, 57.16536462171871, 62.54894520148456 
-111.95478987862434, 17.168985537213352, 22.226673601520414, -151.24633714094887, 56.95212033097794, 62.55113763936522 
-112.85409954956617, 16.81845377991212, 22.227152430992763, -152.0063537468231, 56.740688599791746, 62.553318869042386 
-113.75247729325014, 16.469670238206906, 22.227620274956717, -152.76380343746533, 56.53110019254854, 62.55548826821237 
-114.64999982862955, 16.122718428064093, 22.22807708196135, -153.51877089691914, 56.32338538041404, 62.55764522271038 
-115.54674240222766, 15.777681322562898, 22.22852281229625, -154.27133812344942, 56.11757395255934, 62.55978912663621 
-116.44277876777107, 15.434641360104063, 22.228957437882634, -155.02158452126275, 55.91369522669561, 62.56191938247192 
-117.33818116648848, 15.093680451694901, 22.229380942150712, -155.76958698869493, 55.711778058948774, 62.56403540119195 
-118.23302030801864, 14.754879987290126, 22.22979331990366, -156.5154200030108, 55.51185085310639, 62.56613660236495 
-119.12736535187928, 14.418320841169278, 22.23019457716834, -157.25915570195707, 55.3139415692668, 62.568222414248325 
-120.02128388945361, 14.08408337633359, 22.230584731033055, -158.00086396220286, 55.11807773191996, 62.57029227387483 
-120.91484192645875, 13.752247447906003, 22.230963809472527, -158.74061247480006, 54.92428643748688, 62.57234562713168 
-121.80810386586481, 13.422892405520287, 22.231331851160306, -159.4784668177886, 54.73259436134428, 62.574381928832025 
-122.7011324912412, 13.096097094686275, 22.231688905269053, -160.21449052606934, 54.54302776435944, 62.57640064277925 
-123.59398895051056, 12.771939857119941, 22.23203503125873, -160.94874515866115, 54.355612498958614, 62.57840124182385 
-124.48673274009808, 12.450498530028533, 22.232370298653265, -161.68129036345516, 54.17037401475219, 62.58038320791299 
-125.37942168946783, 12.131850444342518, 22.23269478680577, -162.41218393957521, 53.987337363737836, 62.58234603213324 
-126.27211194604416, 11.816072421887714, 22.233008584652755, -163.14148189744773, 53.80652720510245, 62.58428921474614 
-127.16485796052115, 11.503240771492337, 22.23331179045776, -163.8692385166827, 53.62796780964249, 62.586212265217306 
-128.05771247256692, 11.1934312840257, 22.233604511544492, -164.59550640186094, 53.4516830638217, 62.58811470223839 
-128.95072649693697, 10.886719226366418, 22.23388686402014, -165.32033653632055, 53.27769647348378, 62.589996053743 
-129.84394931001188, 10.583179334300157, 22.234158972489073, -166.04377833403137, 53.10603116723784, 62.59185585691583 
-130.73742843678244, 10.282885804348226, 22.23442096975729, -166.76587968964273, 52.93670989953235, 62.593693658196 
-131.63120963830752, 9.985912284530398, 22.234672996528076, -167.48668702678543, 52.76975505343404, 62.595509013274146 
-132.52533689967487, 9.692331864066865, 22.23491520108942, -168.20624534470747, 52.60518864312619, 62.59730148708367 
-133.4198524184986, 9.402217062026281, 22.2351477389932, -168.92459826331756, 52.4430323161413, 62.59907065378614 
-134.3147965939913, 9.115639814928572, 22.235370772727098, -169.64178806670904, 52.28330735534165, 62.600816096751714 
-135.21020801665182, 8.832671463313195, 22.235584471379266, -170.3578557452329, 52.12603468066127, 62.60253740853359 
-136.1061234586134, 8.553382737285386, 22.235789010296376, -171.07284103618645, 51.971234850621954, 62.60423419083791 
-137.0025778646992, 8.277843741055218, 22.23598457073548, -171.78678246318026, 51.8189280636357, 62.6059060544883 
-137.8996043442361, 8.00612393648598, 22.236171339510182, -172.49971737424468, 51.66913415910531, 62.60755261938598 
-138.7972341636799, 7.738292125670687, 22.236349508631513, -173.21168197873394, 51.52187261833455, 62.60917351446521 
-139.69549674010665, 7.474416432557837, 22.236519274944005, -173.92271138308317, 51.37716256525882, 62.610768377644554 
-140.59441963562838, 7.214564283649226, 22.236680839757554, -174.63283962547203, 51.23502276700676, 62.61233685577388 
-141.49402855279192, 6.9588023877953935, 22.236834408475364, -175.34209970944588, 51.09547163430304, 62.61387860457756 
-142.39434733102178, 6.707196715116081, 22.236980190218677, -176.05052363654303, 50.958527221722036, 62.61539328859408 
-143.29539794416962, 6.459812475075562, 22.23711839744865, -176.75814243797555, 50.82420722780196, 62.61688058111205 
-144.1972004992328, 6.216714093744874, 22.237249245585886, -177.46498620540768, 50.69252899502824, 62.61834016410308 
-145.09977323630605, 5.977965190285331, 22.237372952628192, -178.17108412087512, 50.563509509695386, 62.619771728151704 
-146.00313252983003, 5.743628552689955, 22.237489738767025, -178.87646448588623, 50.43716540165532, 62.62117497238234 
-146.90729289120122, 5.513766112821626, 22.237599826003102, -179.58115474974437, 50.31351294396089, 62.62254960438387 
-147.8122669728062, 5.288438920789301, 22.23770343776176, 179.71481846287128, 50.19256805241196, 62.62389534013185 
-148.71806557354387, 5.067707118705495, 22.237800798508555, 179.01142932502984, 50.074346285012155, 62.62521190390854 
-149.62469764589702, 4.851629913870801, 22.237892133365477, 178.30865278134428, 49.95886284134353, 62.62649902822116 
-150.53217030461448, 4.640265551433149, 22.237977667728543, 177.60646452240422, 49.84613256186611, 62.627756453718355 
-151.44048883706145, 4.433671286571702, 22.238057626886985, 176.90484095981577, 49.736169927149625, 62.62898392910549 
-152.34965671529616, 4.231903356257334, 22.238132235644812, 176.2037592018171, 49.628989057043796, 62.63018121105843 
-153.2596756099258, 4.035016950643581, 22.23820171794499, 175.50319702944168, 49.52460370979382, 62.63134806413655 
-154.1705454057935, 3.843066184143959, 22.238266296496935, 174.80313287320124, 49.42302728110729, 62.63248426069494 
-155.0822642195444, 3.6561040662530715, 22.23832619240774, 174.1035457902616, 49.324272803178516, 62.633589580796155 
-155.99482841911598, 3.474182472170958, 22.23838162481754, 173.40441544208696, 49.22835294367634, 62.634663812121445 
-156.90823264519173, 3.2973521132914687, 22.23843281053969, 172.70572207252758, 49.1352800047008, 62.635706749882054 
-157.8224698346565, 3.1256625076169033, 22.23847996370599, 172.00744648632818, 49.045065921714375, 62.636718196730634 
-158.7375312460837, 2.959161950162571, 22.23852329541769, 171.30957002803456, 48.957722262452954, 62.63769796267299 
-159.65340648728258, 2.797897483415924, 22.23856301340244, 170.61207456127752, 48.87326022582165, 62.638645864980234 
-160.57008354492632, 2.6419148679159763, 22.238599321677984, 169.91494244841329, 48.791690640780494, 62.63956172810188 
-161.48754881627784, 2.491258553019523, 22.238632420222668, 169.2181565305015, 48.713023965224544, 62.640445383579625 
-162.40578714302356, 2.3459716479212194, 22.238662504653565, 168.52170010760165, 48.637270284863206, 62.641296669962514 
-163.32478184721998, 2.206095892995133, 22.2386897659123, 167.82555691937046, 48.56443931210309, 62.642115432723436 
-164.2445147693514, 2.071671631525413, 22.238714389959284, 167.12971112594266, 48.49454038493847, 62.64290152417685 
-165.1649663084903, 1.942737781893993, 22.23873655747659, 166.43414728907933, 48.42758246585375, 62.643654803398476 
-166.08611546454696, 1.8193318102927603, 22.238756443579888, 165.73885035356733, 48.36357414074156, 62.64437513614687 
-167.00793988258584, 1.7014897040274457, 22.238774217539863, 165.04380562885555, 48.302523617840244, 62.645062394786855 
-167.93041589918218, 1.5892459454796717, 22.238790042513465, 164.34899877091274, 48.24443872669453, 62.64571645821539 
-168.85351859078284, 1.4826334867928115, 22.238804075285344, 163.65441576429356, 48.18932691714247, 62.64633721178971 
-169.7772218240307, 1.3816837253461318, 22.238816466019852, 162.96004290439888, 48.13719525833225, 62.64692454725789 
-170.7014983080037, 1.2864264800804452, 22.2388273580238, 162.26586677991835, 48.08805043777158, 62.64747836269239 
-171.62631964831345, 1.1968899687367605, 22.238836887520527, 161.57187425544197, 48.0418987604129, 62.64799856242613 
-172.5516564030017, 1.1131007860678, 22.23884518343532, 160.87805245422894, 47.9987461477771, 62.64848505699166 
-173.47747814016532, 1.035083883080048, 22.238852367192692, 160.184388741123, 47.958598137118166, 62.64893776306348 
-174.40375349723618, 0.9628625473617949, 22.23885855252563, 159.49087070560213, 47.92145988063146, 62.649356603403426 
-175.33045024183323, 0.8964583845502119, 22.23886384529715, 158.79748614495253, 47.88733614470775, 62.649741506809534 
-176.2575353341004, 0.8358913009876242, 22.23886834333434, 158.10422304755613, 47.85623130923524, 62.65009240806812 
-177.18497499043733, 0.7811794876144748, 22.238872136275187, 157.41106957628185, 47.82814936695137, 62.650409247909806 
-178.1127347485237, 0.732339405143116, 22.238875305428348, 156.71801405197067, 47.80309392284649, 62.65069197296854 
-179.04077953353496, 0.689385770553516, 22.238877923645987, 156.02504493700505, 47.781068193620705, 62.65094053574506 
-179.9690737254393, 0.6523315449483232, 22.238880055209947, 155.33215081895293, 47.76207500719577, 62.65115489457352 
179.10241877273478, 0.6211879228012549, 22.238881755731448, 154.63932039427814, 47.74611680228289, 62.6513350135924 
178.17373446577855, 0.5959643226288265, 22.23888307206423, 153.94654245210756, 47.733195628008104, 62.65148086271909 
177.24491019644995, 0.576668379111848, 22.238884042231494, 153.2538058580465, 47.72331314359588, 62.651592417628436 
176.3159830750105, 0.5633059366886929, 22.23888469536659, 152.56109953803391, 47.716470618111835, 62.65166965973562 
175.38699040827802, 0.5558810446386462, 22.238885051667655, 151.86841246222878, 47.71266893026548, 62.65171257618262 
174.4579696283224, 0.5543959536691692, 22.238885122366064, 151.17573362891918, 47.7119085682732, 62.65172115982907 
173.52895822093376, 0.558851114016782, 22.23888490970899, 150.48305204844593, 47.71418962978209, 62.651695409247246 
172.59999365399284, 0.5692451750669677, 22.23888440695582, 149.79035672713238, 47.719511821854695, 62.65163532872073 
171.67111330587377, 0.5855749864941833, 22.238883598388764, 149.09763665121235, 47.72787446101474, 62.651540928247876 
170.7423543940099, 0.6078356009187333, 22.23888245933725, 148.4048807707474, 47.73927647335376, 62.651412223548654 
169.81375390375214, 0.6360202780729427, 22.238880956216477, 147.71207798352563, 47.753716394698294, 62.65124923607616 
168.8853485176477, 0.6701204904648416, 22.238879046579676, 147.0192171189335, 47.771192370837234, 62.65105199303182 
167.95717454526672, 0.7101259305233216, 22.238876679184386, 146.32628692179225, 47.791702157808736, 62.65082052738482 
167.02926785370028, 0.7560245192045496, 22.238873794072372, 145.63327603615025, 47.81524312224585, 62.650554877895416 
166.10166379885203, 0.8078024160354322, 22.238870322663242, 144.94017298902278, 47.84181224178016, 62.65025508914227 
165.17439715764158, 0.8654440305658855, 22.238866187861515, 144.2469661740705, 47.87140610550189, 62.64992121155367 
164.24750206123423, 0.9289320351979414, 22.238861304177174, 143.5536438352073, 47.90402091447594, 62.649553301442396 
163.3210119294078, 0.9982473793558875, 22.238855577859315, 142.86019405012863, 47.93965248231164, 62.64915142104481 
162.3949594061623, 1.0733693049582225, 22.23884890704295, 142.16660471375084, 47.97829623578536, 62.64871563856289 
161.4693762966739, 1.154275363148791, 22.23884118190854, 141.47286352155194, 48.01994721551371, 62.64824602821051 
160.5442935056884, 1.2409414322411765, 22.238832284854254, 140.77895795280355, 48.06460007667587, 62.64774267026294 
159.61974097744485, 1.333341736827638, 22.238822090680603, 140.08487525368412, 48.11224908978268, 62.647205651109644 
158.6957476372134, 1.4314488680008277, 22.23881046678716, 139.39060242026275, 48.16288814149043, 62.646635063310406 
157.77234133452546, 1.535233804634097, 22.238797273381344, 138.6961261813426, 48.216510735457035, 62.646031005654784 
156.84954878816814, 1.64466593566375, 22.2387823636986, 138.00143298115285, 48.273109993237895, 62.64539358322431 
155.92739553300797, 1.759713083314488, 22.238765584234105, 137.30650896187706, 48.33267865521897, 62.64472290745791 
155.00590586870277, 1.8803415272073152, 22.238746774985383, 136.6113399460062, 48.395209081584035, 62.6440190962196 
154.08510281035342, 2.006516029287526, 22.238725769705646, 135.9159114185035, 48.460693253313195, 62.64328227386937 
153.1650080411404, 2.1381998595088727, 22.238702396167493, 135.22020850876817, 48.52912277320953, 62.642512571336106 
152.24564186698322, 2.2753548222088926, 22.23867647643665, 134.52421597238413, 48.60048886695042, 62.641710126193 
151.32702317325453, 2.417941283109203, 22.238647827155283, 133.8279181726396, 48.67478238416021, 62.640875082735 
150.40916938357287, 2.5659181968740095, 22.23861625983467, 133.13129906180322, 48.75199379950043, 62.64000759205827 
149.49209642069212, 2.71924313515936, 22.23858158115672, 132.43434216214027, 48.83211321377382, 62.639107812141546 
148.57581866949886, 2.8778723150855594, 22.23854359328396, 131.73703054665404, 48.91513035503818, 62.63817590792887 
147.6603489421223, 3.041760628064763, 22.238502094177626, 131.03934681953487, 49.00103457972581, 62.6372120514139 
146.74569844515563, 3.210861668916266, 22.2384568779234, 130.34127309629974, 49.089814873764425, 62.63621642172557 
145.83187674898042, 3.3851277652020615, 22.23840773506435, 129.64279098360367, 49.18145985369474, 62.63518920521447 
144.9188917591817, 3.5645100067157816, 22.238354452940694, 128.9438815587046, 49.27595776778039, 62.63413059554041 
144.00674969003342, 3.748958275059061, 22.23829681603586, 128.24452534856096, 49.37329649710512, 62.6330407937603 
143.09545504003123, 3.9384212732399084, 22.238234606328426, 127.54470230854227, 49.4734635566524, 62.63192000841682 
142.18501056944186, 4.132846555229099, 22.238167603649494, 126.84439180072974, 49.57644609636202, 62.630768455627035 
141.27541727983615, 4.332180555411505, 22.238095586044956, 126.14357257178533, 49.68223090215865, 62.62958635917102 
140.36667439556624, 4.536368617870902, 22.238018330142275, 125.44222273036478, 49.7908043969465, 62.628373950580496 
139.45877934714466, 4.745355025448001, 22.23793561152119, 124.7403197240505, 49.902152641564335, 62.62713146922698 
138.55172775647924, 4.959083028513462, 22.237847205087924, 124.03784031577776, 50.01626133569516, 62.62585916240895 
137.64551342391334, 5.177494873399037, 22.237752885452384, 123.33476055972778, 50.13311581872407, 62.624557285438804 
136.74012831701936, 5.400531830431946, 22.237652427307857, 122.6310557766591, 50.25270107053807, 62.623226101728015 
135.83556256108963, 5.6281342215197405, 22.237545605812663, 121.92670052864769, 50.37500171226131, 62.62186588287153 
134.9318044312671, 5.8602414472344595, 22.237432196973355, 121.22166859320531, 50.50000200691881, 62.62047690873032 
134.028840346256, 6.096792013347507, 22.23731197802881, 120.51593293674341, 50.62768586002176, 62.61905946751234 
133.12665486355164, 6.337723556768318, 22.23718472783487, 119.80946568734926, 50.75803682006691, 62.61761385585131 
132.22523067612588, 6.582972870842537, 22.237050227248886, 119.10223810683884, 50.89103807894288, 62.6161403788835 
131.32454861050627, 6.832475929967133, 22.23690825951379, 118.3942205620501, 51.02667247223512, 62.6146393503219 
130.42458762618364, 7.086167913482746, 22.23675861064102, 117.68538249533744, 51.164922479421946, 62.61311109252777 
129.52532481628518, 7.343983228805177, 22.23660106979195, 116.97569239422842, 51.30577022395296, 62.61155593657944 
128.62673540944823, 7.605855533760812, 22.236435429657256, 116.26511776019939, 51.449197473201394, 62.60997422233759 
127.7287927728321, 7.871717758092543, 22.23626148683367, 115.55362507652717, 51.595185638281436, 62.608366298507846 
126.83146841620471, 8.14150212410543, 22.236079042197698, 114.84117977517111, 51.74371577372108, 62.606732522699104 
125.93473199704296, 8.415140166423393, 22.235887901275802, 114.12774620263654, 51.894768576981285, 62.60507326147862 
125.03855132658646, 8.69256275083037, 22.235687874610466, 113.41328758477128, 52.04832438781106, 62.603388890422785 
124.14289237678635, 8.973700092172063, 22.235478778121795, 112.69776599044164, 52.20436318742843, 62.60167979416391 
123.24771928809258, 9.258481771295825, 22.235260433464017, 111.98114229403447, 52.36286459751639, 62.59994636643239 
122.35299437802567, 9.546836751009304, 22.235032668376594, 111.26337613672762, 52.52380787902297, 62.59818901009446 
121.45867815048109, 9.838693391039623, 22.234795317029292, 110.54442588647001, 52.68717193075329, 62.59640813718494 
120.56472930571688, 10.133979461977935, 22.23454822036082, 109.82424859660884, 52.85293528774234, 62.59460416893515 
119.67110475097937, 10.43262215819525, 22.23429122641069, 109.10279996309963, 53.021076119395225, 62.59277753579546 
118.77775961172307, 10.734548109718279, 22.23402419064368, 108.38003428023121, 53.19157222738231, 62.5909286774524 
117.88464724338601, 11.039683393055409, 22.233746976266556, 107.6559043947953, 53.364401043275485, 62.589058042840385 
116.99171924368456, 11.347953540964992, 22.233459454536654, 106.93036165862738, 53.539539625911395, 62.587166090147484 
116.09892546539528, 11.659283551160248, 22.23316150506182, 106.20335587944157, 53.716964658466964, 62.58525328681533 
115.20621402959664, 11.973597893946307, 22.232853016091394, 105.4748352698803, 53.89665244523172, 62.58332010953284 
114.3135313393457, 12.290820518787374, 22.23253388479778, 104.74474639469439, 54.078578908060834, 62.58136704422382 
113.42082209377146, 12.610874859803086, 22.232204017548245, 104.01303411596767, 54.26271958249202, 62.5793945860278 
112.52802930256895, 12.933683840195378, 22.231863330166583, 103.27964153629466, 54.44904961350899, 62.577403239274794 
111.63509430088472, 13.25916987560825, 22.23151174818424, 102.54450993981743, 54.637543750932544, 62.57539351745282 
110.74195676458777, 13.58725487642511, 22.231149207080602, 101.80757873102314, 54.828176344420626, 62.57336594316878 
109.84855472592622, 13.917860249009209, 22.23077565251219, 101.06878537120006, 55.02092133805684, 62.57132104810249 
108.95482458957453, 14.250906895894943, 22.23039104053015, 100.32806531244574, 55.21575226450632, 62.56925937295315 
108.06070114908113, 14.58631521493889, 22.22999533778614, 99.58535192911638, 55.4126422387171, 62.56718146737907 
107.16611760373326, 14.924005097441112, 22.22958852172597, 98.84057644660271, 55.61156395114338, 62.56508788992972 
106.27100557585962, 15.26389592524888, 22.22917058077098, 98.09366786731256, 55.81248966046665, 62.562979207970365 
105.37529512859886, 15.60590656685633, 22.22874151448668, 97.34455289373672, 56.01539118578891, 62.56085599759924 
104.4789147841669, 15.949955372515298, 22.228301333738518, 96.59315584846864, 56.220239898271245, 62.55871884355715 
