# MEX_intpoint_lon [deg], MEX_intpoint_lat [deg], MEX_intpoint_angle [deg], TGO_intpoint_lon [deg], TGO_intpoint_lat [deg], TGO_intpoint_angle [deg] 
-104.18904362231024, 20.478675780171947, 22.446753278980438, -156.86979840698967, 59.15087873579588, 62.52847186856695 
-105.09367543103978, 20.104418496831446, 22.447354060716886, -157.66929403162243, 58.930763662604946, 62.530656911029524 
-105.99660816713694, 19.731196087320363, 22.447944095379828, -158.46522241699225, 58.71212305814648, 62.532836382085286 
-106.89793566935793, 19.35909885486131, 22.448523216091736, -159.25769705794505, 58.49499243186467, 62.53500962168703 
-107.79775038411135, 18.988216434169708, 22.449091268986237, -160.04682788022774, 58.27940666328494, 62.537175976180016 
-108.6961433389135, 18.618637809519285, 22.44964811322769, -160.8327213609689, 58.065400020389106, 62.53933479848634 
-109.59320411723105, 18.250451332027893, 22.45019362101507, -161.6154806449078, 57.85300617699131, 62.541485448281776 
-110.4890208345791, 17.883744736127547, 22.450727677570132, -162.3952056564949, 57.64225822916139, 62.54362729216531 
-111.38368011575368, 17.518605155184062, 22.451250181109998, -163.17199320799037, 57.433188710740225, 62.545759703821155 
-112.27726707308487, 17.15511913623448, 22.451761042804197, -163.94593710368486, 57.22582960798922, 62.54788206417303 
-113.16986528560665, 16.793372653812103, 22.452260186716323, -164.71712824037027, 57.02021237341446, 62.549993761531304 
-114.0615567790472, 16.433451122831144, 22.452747549730223, -165.48565470418404, 56.81636793880407, 62.55209419173245 
-114.9524220065518, 16.075439410504714, 22.453223081461278, -166.25160186395232, 56.61432672751549, 62.55418275827109 
-115.84253983005893, 15.719421847271555, 22.45368674415235, -167.01505246115403, 56.41411866604763, 62.55625887242452 
-116.73198750225693, 15.365482236708933, 22.454138512555076, -167.7760866966264, 56.21577319493156, 62.55832195336997 
-117.6208406490573, 15.01370386441018, 22.454578373796455, -168.534782314131, 56.019319278971174, 62.56037142829445 
-118.50917325252728, 14.66416950580764, 22.455006327230905, -169.29121468089554, 55.824785416864685, 62.56240673249715 
-119.39705763423208, 14.316961432922511, 22.45542238427815, -170.04545686524557, 55.63219965023543, 62.56442730948479 
-120.28456443894349, 13.972161420025355, 22.455826568247108, -170.7975797114361, 55.44158957210015, 62.56643261105968 
-121.17176261867955, 13.629850748191814, 22.456218914145975, -171.54765191179177, 55.25298233480066, 62.56842209740063 
-122.0587194170448, 13.290110208740156, 22.456599468478938, -172.29574007625902, 55.06640465742436, 62.57039523713693 
-122.94550035384923, 12.95302010553812, 22.45696828902963, -173.04190879947393, 54.88188283273749, 62.57235150741522 
-123.8321692099882, 12.618660256168564, 22.457325444631742, -173.78622072544232, 54.69944273365427, 62.57429039395983 
-124.71878801257367, 12.287109991944416, 22.457671014927108, -174.52873660993004, 54.519109819263576, 62.576211391125945 
-125.60541702031122, 11.958448156765183, 22.458005090111563, -175.269515380654, 54.340909140434306, 62.57811400194654 
-126.49211470912407, 11.632753104808753, 22.458327770668927, -176.00861419536508, 54.16486534501946, 62.579997738172445 
-127.37893775803138, 11.310102697053546, 22.45863916709348, -176.74608849790886, 53.99100268267801, 62.58186212030635 
-128.26594103529158, 10.990574296628017, 22.458939399601398, -177.48199207234754, 53.819345009333, 62.583706677630325 
-129.15317758482936, 10.674244762985705, 22.459228597831356, -178.21637709522426, 53.64991579128328, 62.58553094822729 
-130.0406986129674, 10.361190444906146, 22.459506900534915, -178.94929418604758, 53.48273810898589, 62.58733447899644 
-130.92855347549053, 10.051487172323121, 22.459774455256927, -179.68079245607063, 53.31783466052499, 62.58911682566298 
-131.8167896650742, 9.745210246984096, 22.460031418006526, 179.58908044456211, 53.15522776478291, 62.590877552782004 
-132.7054527991133, 9.44243443194591, 22.460277952919082, 178.86027828123136, 52.994939364328076, 62.59261623373691 
-133.59458660799189, 9.143233939914206, 22.46051423190956, 178.13275619075543, 52.836991028034035, 62.59433245073253 
-134.48423292383865, 8.847682420435577, 22.46074043431777, 177.40647063873448, 52.681403953443244, 62.59602579478302 
-135.37443166981635, 8.555852945953694, 22.460956746546017, 176.68137937826398, 52.52819896888854, 62.59769586569459 
-136.26522084999792, 8.26781799674251, 22.46116336168959, 175.95744140995856, 52.377396535385216, 62.599342272043685 
-137.15663653988395, 7.983649444732042, 22.461360479160508, 175.23461694322805, 52.229016748305604, 62.60096463115028 
-138.04871287762091, 7.703418536244087, 22.461548304305214, 174.51286735875124, 52.083079338847604, 62.60256256904656 
-138.94148205598194, 7.427195873657552, 22.46172704801656, 173.79215517209406, 51.939603675308895, 62.60413572044192 
-139.8349743151732, 7.155051396025601, 22.46189692634064, 173.07244399842168, 51.7986087641771, 62.6056837286831 
-140.72921793653435, 6.887054358668718, 22.46205816007902, 172.353698518255, 51.6601132510466, 62.6072062457109 
-141.6242392372003, 6.623273311770524, 22.462210974386892, 171.63588444422538, 51.524135421371874, 62.608702932013145 
-142.52006256579514, 6.363776078005482, 22.46235559836761, 170.91896848878235, 51.39069320106717, 62.610173456573975 
-143.4167102992307, 6.108629729229933, 22.46249226466425, 170.2029183328105, 51.25980415696163, 62.611617496819974 
-144.31420284068227, 5.857900562270627, 22.462621209048656, 169.48770259511494, 51.13148549711898, 62.61303473856324 
-145.21255861881562, 5.611654073847251, 22.462742670008563, 168.77329080273498, 51.00575407103052, 62.614424875941324 
-146.1117940883392, 5.369954934668011, 22.46285688833329, 168.0596533620477, 50.88262636968969, 62.615787611354826 
-147.01192373195676, 5.1328669627398105, 22.462964106698614, 167.3467615306254, 50.76211852555625, 62.61712265540228 
-147.9129600637934, 4.900453095937141, 22.463064569251237, 166.63458738981092, 50.644246312418105, 62.61842972681278 
-148.8149136343696, 4.672775363876194, 22.463158521193705, 165.9231038179776, 50.5290251451582, 62.619708552376714 
-149.7177930371942, 4.449894859143315, 22.463246208369902, 165.21228446444178, 50.41647007943365, 62.620958866874496 
-150.62160491704904, 4.231871707929173, 22.463327876851967, 164.50210372399573, 50.30659581127456, 62.62218041300373 
-151.52635398003204, 4.0187650401225135, 22.46340377252912, 163.79253671203284, 50.1994166766089, 62.6233729413049 
-152.43204300542752, 3.810632958919688, 22.46347414069886, 163.08355924023473, 50.09494665072043, 62.62453621008585 
-153.33867285946656, 3.607532510008297, 22.46353922566116, 162.37514779279454, 49.99319934764569, 62.625669985345404 
-154.2462425110384, 3.4095196503855445, 22.46359927031615, 161.66727950314893, 49.89418801951663, 62.626774040695885 
-155.15474904941107, 3.2166492168739045, 22.463654515765835, 160.95993213119453, 49.79792555585442, 62.627848157285285 
-156.06418770401393, 3.0289748943986057, 22.46370520092034, 160.2530840409636, 49.70442448282055, 62.62889212371894 
-156.9745518663318, 2.8465491840933623, 22.463751562109266, 159.54671417873732, 49.613696962430524, 62.62990573598102 
-157.8858331139551, 2.6694233713023365, 22.463793832698645, 158.8408020515725, 49.52575479173575, 62.630888797355894 
-158.79802123682504, 2.4976474935479365, 22.463832242713934, 158.13532770622263, 49.440609401978584, 62.63184111835007 
-159.7111042657088, 2.331270308535256, 22.463867018469667, 157.43027170843075, 49.358271857725754, 62.63276251661394 
-160.62506850293204, 2.1703392622653723, 22.46389838220613, 156.7256151225759, 49.27875285598476, 62.63365281686464 
-161.5398985553907, 2.0149004573304405, 22.463926551733653, 156.02133949165395, 49.20206272530812, 62.63451185080947 
-162.45557736985882, 1.8649986214645282, 22.463951740084898, 155.31742681757467, 49.12821142488983, 62.635339457070025 
-163.37208627060005, 1.7206770764244954, 22.463974155175677, 154.6138595417577, 49.05720854365832, 62.63613548110791 
-164.28940499928603, 1.581977707275711, 22.463993999474685, 153.91062052601083, 48.98906329937006, 62.63689977515141 
-165.20751175721512, 1.4489409321574824, 22.464011469682585, 153.20769303367467, 48.92378453770788, 62.63763219812367 
-166.12638324982046, 1.3216056726028442, 22.464026756420978, 152.50506071101842, 48.86138073138769, 62.63833261557266 
-167.0459947334457, 1.2000093244870895, 22.464040043931572, 151.8027075688715, 48.80185997927729, 62.63900089960271 
-167.96632006436187, 1.0841877296786844, 22.464051509785868, 151.1006179644776, 48.74523000553075, 62.63963692880831 
-168.8873317499892, 0.974175148465359, 22.46406132460598, 150.39877658355664, 48.69149815874175, 62.6402405882096 
-169.80900100228044, 0.8700042328270498, 22.464069651796752, 149.69716842256224, 48.64067141111887, 62.64081176919036 
-170.73129779321562, 0.7717060006257822, 22.464076647289634, 148.99577877112137, 48.59275635768608, 62.64135036943839 
-171.65419091234787, 0.6793098107810579, 22.46408245929861, 148.2945931946444, 48.547759215511, 62.64185629288826 
-172.57764802633517, 0.5928433394972866, 22.464087228088516, 147.5935975170936, 48.5056858229639, 62.64232944966679 
-173.5016357403831, 0.5123325576074995, 22.464091085756056, 146.89277780389833, 48.4665416390097, 62.64276975604123 
-174.4261196615177, 0.43780170909525484, 22.464094156023812, 146.19212034500657, 48.430331742535614, 62.64317713437032 
-175.3510644635995, 0.36927329085380345, 22.464096554047572, 145.49161163806122, 48.397060831716395, 62.64355151305832 
-176.27643395398331, 0.30676803373857825, 22.464098386237044, 144.79123837169155, 48.366733223419466, 62.64389282651215 
-177.20219114172227, 0.2503048849660022, 22.464099750090472, 144.0909874089092, 48.33935285265173, 62.6442010151017 
-178.12829830720656, 0.19990099190804764, 22.46410073404314, 143.39084577059924, 48.31492327204976, 62.64447602512326 
-179.05471707312427, 0.15557168732832208, 22.464101417330117, 142.69080061909634, 48.29344765141517, 62.64471780876643 
-179.9814084766232, 0.1173304761016991, 22.46410186986327, 141.99083924183697, 48.27492877729635, 62.64492632408423 
179.0916669574499, 0.0851890234554394, 22.464102152122948, 141.29094903507846, 48.25936905261806, 62.64510153496714 
178.16454914236235, 0.05915714476546502, 22.464102315064164, 140.59111748767586, 48.24677049635986, 62.645243411119935 
177.2372783544941, 0.03924279693723394, 22.464102400037756, 139.89133216490754, 48.23713474328453, 62.645351928042714 
176.30989515765773, 0.025452071396105867, 22.46410243872627, 139.19158069234143, 48.230463043717, 62.6454270670152 
175.38244032688038, 0.017789188707435025, 22.464102453094952, 138.49185073973274, 48.226756263374845, 62.64546881508482 
174.45495477178832, 0.016256494842118142, 22.46410245535774, 137.79213000494474, 48.22601488325047, 62.64547716505841 
173.52747945973857, 0.020854459098316562, 22.464102447958382, 137.0924061978844, 48.22823899954566, 62.64545211549755 
172.60005533884149, 0.031581673685524406, 22.464102423566604, 136.3926670244443, 48.23342832365839, 62.64539367071769 
171.67272326101988, 0.04843485497214539, 22.464102365089513, 135.69290017044253, 48.24158218222221, 62.64530184079091 
170.74552390524912, 0.07140884639284957, 22.464102245698015, 134.99309328555162, 48.25269951719792, 62.64517664155231 
169.8184977011223, 0.10049662300746712, 22.46410202886836, 134.2932339672094, 48.2667788860172, 62.645018094610336 
168.89168475288398, 0.13568929769798244, 22.46410166843868, 133.59330974450168, 48.28381846177814, 62.64482622736032 
167.96512476407185, 0.17697612898573853, 22.464101108680495, 132.8933080620092, 48.30381603349143, 62.64460107300202 
167.03885696290584, 0.2243445304462656, 22.464100284385072, 132.19321626361022, 48.32676900637725, 62.64434267056066 
166.11292002855853, 0.2777800816945404, 22.464099120964466, 131.49302157622932, 48.35267440221127, 62.64405106491134 
165.18735201843884, 0.33726654090904923, 22.464097534567248, 130.79271109352442, 48.38152885971919, 62.643726306807245 
164.26219029661533, 0.4027858588590045, 22.4640954322086, 130.09227175950198, 48.41332863501833, 62.64336845291092 
163.33747146350183, 0.47431819439442796, 22.46409271191472, 129.39169035205177, 48.44806960210507, 62.64297756582923 
162.4132312869221, 0.551841931355491, 22.464089262881334, 128.6909534663917, 48.48574725338651, 62.64255371415135 
161.48950463466474, 0.63533369685325, 22.46408496564599, 127.99004749841268, 48.52635670025477, 62.64209697249026 
160.5663254086341, 0.724768380870617, 22.464079692274133, 127.2889586279139, 48.56989267370206, 62.641607421527006 
159.64372648069514, 0.8201191571290554, 22.464073306558408, 126.58767280171806, 48.616349524974446, 62.641085148058266 
158.72173963030494, 0.9213575051633316, 22.464065664231246, 125.88617571665591, 48.66572122626234, 62.64053024504673 
157.80039548401598, 1.0284532335438188, 22.464056613190188, 125.18445280240975, 48.71800137142537, 62.6399428116742 
156.8797234569284, 1.1413745041832948, 22.464045993735812, 124.48248920420396, 48.773183176749015, 62.63932295339762 
155.9597516961618, 1.2600878576627144, 22.46403363882189, 123.78026976533148, 48.83125948173052, 62.63867078200731 
155.04050702640953, 1.3845582395085156, 22.46401937431739, 123.0777790095038, 48.892222749891516, 62.63798641568816 
154.1220148976301, 1.5147490273519366, 22.464003019280124, 122.37500112301245, 48.956065069613935, 62.63726997908251 
153.20429933492287, 1.650622058899559, 22.4639843862415, 121.67191993668857, 49.02277815499671, 62.636521603355845 
152.28738289062792, 1.792137660642753, 22.4639632815021, 120.96851890764746, 49.09235334672946, 62.635741426263934 
151.37128659868102, 1.9392546772327528, 22.46393950543775, 120.26478110080424, 49.16478161298028, 62.634929592222164 
150.4560299312483, 2.091930501447396, 22.463912852815493, 119.56068917014584, 49.24005355029361, 62.634086252376555 
149.54163075765663, 2.2501211046748684, 22.463883113119245, 118.85622533974438, 49.318159384494805, 62.633211564676245 
148.6281053056283, 2.413781067839806, 22.463850070884554, 118.1513713844965, 49.39908897159738, 62.632305693947416 
147.71546812482217, 2.58286361269672, 22.463813506042154, 117.44610861057187, 49.482831798708716, 62.63136881196832 
146.8037320526755, 2.7573206334163163, 22.46377319426967, 116.74041783555447, 49.56937698493042, 62.63040109754556 
145.8929081825339, 2.9371027283905145, 22.46372890735125, 116.0342793682583, 49.65871328224845, 62.62940273659098 
144.98300583405083, 3.12215923218262, 22.46368041354442, 115.3276729881997, 49.75082907640885, 62.6283739221994 
144.0740325258313, 3.312438247550154, 22.463627477953857, 114.6205779247067, 49.84571238777407, 62.627314854726656 
143.16599395028882, 3.5078866774687585, 22.463569862911452, 113.91297283564555, 49.94335087215526, 62.62622574186829 
142.25889395067833, 3.7084502570869677, 22.463507328362233, 113.20483578574333, 50.043731821614976, 62.62510679873777 
141.35273450026392, 3.914073585542972, 22.4634396322556, 112.49614422448538, 50.14684216523559, 62.623958247945176 
140.4475156835736, 4.1247001575762665, 22.46336653094148, 111.7868749635642, 50.252668469847514, 62.622780319675236 
139.54323567969038, 4.340272394868551, 22.46328777957059, 111.07700415385699, 50.36119694071168, 62.62157325176497 
138.6398907475235, 4.5607316770504465, 22.463203132498663, 110.36650726190612, 50.47241342215049, 62.62033728978073 
137.73747521300115, 4.786018372312379, 22.463112343693748, 109.655359045878, 50.586303398121224, 62.61907268709409 
136.83598145812195, 5.016071867560029, 22.4630151671463, 108.94353353097267, 50.70285199272531, 62.61777970495689 
135.93539991179932, 5.250830598057321, 22.46291135728139, 108.23100398425638, 50.82204397064743, 62.61645861257464 
135.03571904243185, 5.490232076501634, 22.462800669372516, 107.51774288888826, 50.943863737517376, 62.61510968717886 
134.13692535212832, 5.734212921478854, 22.46268285995651, 106.80372191771033, 51.06829534018795, 62.613733214097195 
133.23900337251715, 5.982708885247798, 22.462557687248886, 106.08891190616949, 51.19532246692148, 62.612329486821764 
132.34193566206596, 6.2356548808063845, 22.462424911559296, 105.37328282453801, 51.324928447477866, 62.61089880707554 
131.4457028048388, 6.492985008194064, 22.462284295706212, 104.65680374939866, 51.45709625309608, 62.609441484876044 
130.55028341061546, 6.754632579987863, 22.462135605430685, 103.93944283435793, 51.59180849636156, 62.60795783859658 
129.65565411629962, 7.020530145951518, 22.46197860980826, 103.22116727995054, 51.729047430950814, 62.60644819502492 
128.7617895885409, 7.290609516800145, 22.461813081658793, 102.50194330269562, 51.86879495124522, 62.6049128894185 
127.86866252749758, 7.5648017870449555, 22.46163879795344, 101.78173610326441, 52.011032591804664, 62.6033522655569 
126.97624367166775, 7.8430373568852625, 22.461455540218378, 101.06050983371692, 52.155741526692296, 62.60176667579063 
126.08450180371683, 8.125245953117584, 22.46126309493468, 100.33822756376323, 52.302902568640704, 62.600156481086536 
125.19340375723276, 8.41135664903367, 22.461061253933877, 99.614851246004, 52.45249616804957, 62.598522051069104 
124.30291442434034, 8.701297883282214, 22.460849814788574, 98.89034168010151, 52.60450241180498, 62.5968637640581 
123.41299676411002, 8.994997477670854, 22.46062858119769, 98.16465847583241, 52.7589010219093, 62.59518200710165 
122.52361181169711, 9.292382653887854, 22.46039736336582, 97.43776001496917, 52.91567135391109, 62.593477176005415 
121.63471868815252, 9.59338004912457, 22.460155978376143, 96.70960341193718, 53.07479239512325, 62.59174967535677 
120.74627461084644, 9.897915730582639, 22.45990425055643, 95.9801444731906, 53.23624276261785, 62.58999991854444 
119.85823490445246, 10.205915208851275, 22.459642011837698, 95.24933765524898, 53.40000070098499, 62.58822832777302 
118.9705530124406, 10.517303450142848, 22.459369102104866, 94.51713602133331, 53.566044079843145, 62.58643533407274 
118.08318050903326, 10.832004887376286, 22.45908536953924, 93.78349119653885, 53.73435039108743, 62.58462137730365 
117.19606711158178, 11.149943430100288, 22.45879067095207, 93.04835332147849, 53.90489674586188, 62.58278690615434 
116.309160693324, 11.471042473250101, 22.458484872108915, 92.3116710043286, 54.077659871241416, 62.580932378135365 
115.42240729649023, 11.795224904733185, 22.45816784804426, 91.57339127120656, 54.252616106608066, 62.57905825956651 
114.53575114572682, 12.122413111841425, 22.45783948336613, 90.83345951480571, 54.429741399706046, 62.577165025558514 
113.64913466181362, 12.452528986488677, 22.457499672550064, 90.09181944121244, 54.60901130235895, 62.57525315998836 
112.76249847565484, 12.785493929274741, 22.457148320222284, 89.34841301482469, 54.790400965832006, 62.57332315546882 
111.87578144252932, 13.121228852377765, 22.45678534143143, 88.60318040129127, 54.97388513582144, 62.57137551331124 
110.9889206565901, 13.45965418127951, 22.456410661908727, 87.85605990838549, 55.15943814705226, 62.56941074348213 
110.10185146561038, 13.800689855328667, 22.45602421831603, 87.1069879247261, 55.34703391746475, 62.56742936455309 
109.21450748597694, 14.144255327149487, 22.455625958481576, 86.35589885625386, 55.53664594196915, 62.56543190364412 
108.32682061793888, 14.490269560904323, 22.455215841622913, 85.60272506036956, 55.728247285747436, 62.563418896359906 
107.43872106112568, 14.838651029419943, 22.454793838556903, 84.84739677763686, 55.921810577079306, 62.561390886719614 
106.5501373303538, 15.189317710189334, 22.45435993189634, 84.08984206094863, 56.11730799966907, 62.55934842707931 
105.66099627174872, 15.542187080261721, 22.453914116233022, 83.32998670205468, 56.31471128444904, 62.557292078047496 
104.77122307921424, 15.897176110035508, 22.45345639830684, 82.56775415534361, 56.51399170083326, 62.55522240839339 
