# MEX_intpoint_lon [deg], MEX_intpoint_lat [deg], MEX_intpoint_angle [deg], TGO_intpoint_lon [deg], TGO_intpoint_lat [deg], TGO_intpoint_angle [deg] 
-104.54467498189015, 20.56016886414404, 22.661369595645592, -169.8587221854816, 59.055471724353694, 62.53105865730041 
-105.44270796124118, 20.174830365017858, 22.66199658793735, -170.65281881679198, 58.83245640167568, 62.53327678228817 
-106.33903372575368, 19.790589043613142, 22.66261208432934, -171.44339145379212, 58.61094816040933, 62.5354891663541 
-107.2337507291156, 19.407536372869586, 22.66321591109391, -172.23055372977524, 58.390982379968776, 62.53769513962701 
-108.12695589068522, 19.02576314678372, 22.66380790842267, -173.01441564874045, 58.172593817176654, 62.53989403882857 
-109.01874457279496, 18.645359501127256, 22.664387930445983, -173.79508371061183, 57.955816624593695, 62.54208520745998 
-109.90921055931292, 18.26641493326207, 22.66495584523576, -174.57266103185395, 57.74068436783222, 62.544267995981215 
-110.7984460353234, 17.889018321017886, 22.66551153479139, -175.34724746163184, 57.52723004190146, 62.546441761982244 
-111.68654156779745, 17.513257940600116, 22.666054895009037, -176.11893969366525, 57.3154860866314, 62.54860587034678 
-112.57358608713476, 17.139221483498158, 22.66658583563431, -176.88783137392412, 57.10548440121871, 62.550759693408246 
-113.45966686946764, 16.766996072365764, 22.667104280198405, -177.65401320431167, 56.89725635793672, 62.55290261109781 
-114.34486951962724, 16.39666827584737, 22.66761016593791, -178.41757304247926, 56.690832815049184, 62.55503401108509 
-115.22927795468078, 16.02832412232584, 22.668103443698357, -179.1785959979143, 56.4862441289659, 62.55715328891082 
-116.11297438795822, 15.662049112568516, 22.668584077821677, -179.93716452444065, 56.283520165676, 62.55925984811198 
-116.9960393134938, 15.297928231250532, 22.6690520460178, 179.3066414907334, 56.08269031149339, 62.561353100339254 
-117.8785514908181, 14.93604595733521, 22.669507339220576, 178.55274464128638, 55.88378348314704, 62.5634324654671 
-118.76058793004215, 14.576486273293474, 22.66994996142817, 177.80106991924563, 55.68682813724737, 62.56549737169591 
-119.64222387718479, 14.219332673144931, 22.670379929528305, 177.05154463551395, 55.49185227915796, 62.56754725564705 
-120.52353279970048, 13.864668169305292, 22.670797273108477, 176.30409834333943, 55.29888347130158, 62.56958156245032 
-121.4045863721734, 13.512575298225705, 22.671202034251497, 175.5586627646099, 55.10794884092662, 62.57159974582403 
-122.28545446214947, 13.163136124811157, 22.671594267316674, 174.8151717188578, 54.919075087360405, 62.57360126814813 
-123.16620511608615, 12.816432245606308, 22.67197403870679, 174.0735610548641, 54.732288488773214, 62.57558560052978 
-124.04690454540552, 12.472544790738652, 22.672341426621454, 173.33376858475478, 54.5476149084769, 62.577552222862195 
-124.92761711264345, 12.131554424610135, 22.672696520796908, 172.59573402048608, 54.36507980077992, 62.579500623876456 
-125.80840531769323, 11.79354134532973, 22.673039422232865, 171.85939891261856, 54.1847082164205, 62.58143030118642 
-126.689329784149, 11.458585282881216, 22.673370242906596, 171.12470659128385, 54.00652480759801, 62.58334076132704 
-127.57044924575968, 11.12676549602132, 22.67368910547479, 170.39160210925112, 53.83055383262196, 62.585231519785935 
-128.4518205330101, 10.798160767905623, 22.67399614296342, 169.66003218700422, 53.65681916019735, 62.58710210102886 
-129.3334985598517, 10.472849400440484, 22.67429149844625, 168.9299451597428, 53.48534427336404, 62.58895203851849 
-130.21553631061016, 10.150909207361552, 22.674575324712258, 168.20129092622528, 53.316152273107186, 62.59078087472727 
-131.09798482710352, 9.832417506040468, 22.674847783922417, 167.47402089937333, 53.14926588165489, 62.592588161144306 
-131.98089319600783, 9.51745110802379, 22.675109047256473, 166.74808795856208, 52.98470744547896, 62.59437345827614 
-132.86430853651396, 9.206086308309423, 22.67535929454997, 166.02344640352135, 52.822498938013304, 62.59613633564224 
-133.74827598832272, 8.89839887336814, 22.67559871392209, 165.30005190977846, 52.66266196210474, 62.59787637176479 
-134.63283870002928, 8.594464027919605, 22.675827501394927, 164.57786148557366, 52.50521775220969, 62.59959315415304 
-135.51803781795465, 8.294356440474292, 22.676045860504498, 163.85683343018346, 52.35018717634998, 62.60128627928267 
-136.4039124754822, 7.9981502076549935, 22.676254001904113, 163.1369272935889, 52.197590737840635, 62.60295535257016 
-137.29049978296482, 7.705918837313748, 22.676452142960635, 162.41810383742924, 52.047448576801585, 62.6045999883425 
-138.177834818268, 7.417735230462187, 22.6766405073442, 161.7003249971827, 51.89978047146532, 62.606219809801814 
-139.0659506180213, 7.1336716620357645, 22.676819324611774, 160.98355384551922, 51.754605839291465, 62.607814448986446 
-139.9548781696494, 6.85379976051485, 22.67698882978531, 160.2677545567726, 51.611943737899416, 62.60938354672697 
-140.84464640426054, 6.578190486427736, 22.67714926292491, 159.5528923724799, 51.471812865829285, 62.61092675259885 
-141.73528219046946, 6.306914109763802, 22.67730086869765, 158.83893356794087, 51.334231563141316, 62.61244372487102 
-142.6268103292353, 6.040040186326977, 22.677443895942577, 158.12584541974925, 51.199217811863655, 62.613934130450865 
-143.51925354979704, 5.777637533062826, 22.677578597232436, 157.41359617425172, 51.06678923629751, 62.61539764482613 
-144.4126325067891, 5.519774202394915, 22.6777052284328, 156.70215501689142, 50.936963103189036, 62.61683395200324 
-145.30696577862147, 5.2665174556090975, 22.677824048259083, 155.99149204239458, 50.809756321776604, 62.618242744443016 
-146.20226986720937, 5.0179337353269045, 22.677935317832084, 155.28157822576122, 50.685185443721785, 62.619623722993595 
-147.09855919913733, 4.774088637111993, 22.6780393002326, 154.57238539402104, 50.56326666293231, 62.620976596820704 
-147.99584612834232, 4.5350468802565915, 22.678136260055755, 153.8638861987196, 50.444015815284914, 62.62230108333585 
-148.89414094040018, 4.300872277797237, 22.678226462965505, 153.15605408909866, 50.32744837825543, 62.623596908122146 
-149.7934518584983, 4.071627705812284, 22.678310175250143, 152.4488632859384, 50.21357947046386, 62.62486380485865 
-150.69378505117606, 3.847375072055928, 22.67838766337909, 151.74228875602867, 50.10242385114116, 62.62610151524272 
-151.59514464191258, 3.6281752839865207, 22.678459193561835, 151.03630618723972, 49.99399591952485, 62.62730978891116 
-152.49753272063907, 3.4140882162492323, 22.678525031309388, 150.33089196416188, 49.88830971419006, 62.628488383360015 
-153.40094935724952, 3.2051726776758964, 22.678585440998944, 149.62602314428707, 49.785378912322294, 62.62963706386343 
-154.30539261718107, 3.0014863778671215, 22.67864068544233, 148.92167743470506, 49.68521682893844, 62.63075560339184 
-155.21085857913138, 2.80308589342415, 22.67869102545875, 148.21783316928818, 49.587836416061535, 62.63184378252933 
-156.11734135497528, 2.61002663390018, 22.678736719452395, 147.5144692863402, 49.4932502618557, 62.63290138939086 
-157.02483311193893, 2.422362807542929, 22.67877802299557, 146.81156530668596, 49.40147058972632, 62.63392821953919 
-157.93332409708518, 2.240147386902065, 22.678815188417737, 146.1091013121784, 49.31250925739121, 62.63492407590209 
-158.8428026641565, 2.063432074377059, 22.678848464401153, 145.40705792460193, 49.22637775592792, 62.63588876868934 
-159.7532553028179, 1.8922672677823915, 22.67887809558353, 144.70541628495073, 49.14308720880212, 62.63682211531079 
-160.66466667033438, 1.726702026008573, 22.67890432216839, 144.0041580330626, 49.06264837088211, 62.63772394029457 
-161.57701962571105, 1.566784034858629, 22.678927379543396, 143.30326528758863, 48.9850716274441, 62.63859407520636 
-162.49029526631736, 1.412559573140529, 22.678947497907405, 142.6027206262811, 48.9103669931726, 62.63943235856968 
-163.40447296700893, 1.264073479096847, 22.678964901906582, 141.90250706658105, 48.8385441111606, 62.640238635787405 
-164.31953042175343, 1.1213691172534117, 22.678979810280147, 141.2026080464895, 48.76961225191337, 62.6410127590645 
-165.23544368775705, 0.9844883457689036, 22.67899243551617, 140.50300740570566, 48.703580312360295, 62.64175458733271 
-166.15218723208324, 0.8534714843672829, 22.679002983517808, 139.80368936701666, 48.64045681487805, 62.64246398617644 
-167.0697339807428, 0.7283572829345969, 22.67901165328066, 139.10463851792412, 48.580249906329456, 62.64314082776111 
-167.9880553702296, 0.6091828908611373, 22.679018636581333, 138.40583979249266, 48.52296735712092, 62.64378499076319 
-168.90712140146508, 0.4959838272089818, 22.679024117677987, 137.70727845340707, 48.46861656028229, 62.644396360302544 
-169.82690069610666, 0.38879395178366644, 22.679028273022883, 137.00894007422477, 48.417204530572086, 62.644974827877284 
-170.74736055516667, 0.28764543718746477, 22.679031270987693, 136.31081052181037, 48.36873790361111, 62.64552029130091 
-171.66846701987956, 0.19256874192957563, 22.679033271601643, 135.61287593894062, 48.323222935047575, 62.64603265464229 
-172.590184934746, 0.10359258466685724, 22.679034426302994, 134.91512272706737, 48.28066549975616, 62.64651182816834 
-173.51247801267465, 0.020743919645931433, 22.679034877704105, 134.21753752922734, 48.241071091073835, 62.646957728289514 
-174.4353089021337, -0.05595208658491326, 22.679034759370502, 133.52010721308756, 48.20444482007459, 62.6473702775085 
-175.35863925621618, -0.1264720771287, 22.679034195614076, 132.82281885411538, 48.17079141488565, 62.64774940437197 
-176.28242980351507, -0.19079452529556712, 22.679033301300898, 132.12565971886363, 48.140115220046866, 62.64809504342539 
-177.2066404206976, -0.24889975370276152, 22.679032181673684, 131.4286172483593, 48.11242019591563, 62.64840713517153 
-178.1312302066594, -0.3007699518641161, 22.679030932189317, 130.73167904158763, 48.08770991811876, 62.64868562603193 
-179.05615755813457, -0.3463891922181501, 22.679029638371617, 130.03483283906039, 48.06598757705314, 62.64893046831225 
-179.98138024662956, -0.3857434445483284, 22.679028375679376, 129.33806650646036, 48.04725597743659, 62.64914162017102 
179.0931445034556, -0.4188205887533785, 22.67902720939016, 128.64136801835215, 48.03151753791012, 62.64931904559201 
178.16745993566042, -0.4456104259302702, 22.67902619449971, 127.94472544195035, 48.018774290692946, 62.649462714360325 
177.24160968139907, -0.4661046877372072, 22.67902537563727, 127.2481269209366, 48.00902788129098, 62.649572602042255 
176.3156376791466, -0.4802970440090171, 22.679024786996898, 126.55156065931682, 48.002279568259894, 62.6496486899689 
175.3895880930312, -0.4881831086024243, 22.679024452284843, 125.85501490530966, 47.998530223023224, 62.649690965223655 
174.46350523098835, -0.4897604434538021, 22.679024384683068, 125.15847793525825, 47.99778032974612, 62.649699420633425 
173.53743346263522, -0.48502856083743506, 22.679024586828973, 124.46193803755645, 48.000029985265144, 62.649674054763835 
172.61141713702497, -0.47398892381746505, 22.679025050811372, 123.76538349658138, 48.00527889907418, 62.64961487191829 
171.68550050044146, -0.45664494489232926, 22.679025758182593, 123.06880257662382, 48.01352639336659, 62.64952188214072 
170.75972761439334, -0.43300198283552294, 22.67902667998692, 122.3721835058084, 48.02477140313351, 62.6493951012226 
169.8341422739677, -0.4030673377422974, 22.679027776805107, 121.67551445999455, 48.039012476317964, 62.649234550713444 
168.90878792669983, -0.36685024429680374, 22.67902899881508, 120.97878354665059, 48.05624777402436, 62.64904025793521 
167.98370759211502, -0.32436186327977334, 22.679030285868617, 120.28197878869182, 48.07647507078277, 62.648812256000724 
167.05894378209385, -0.27561527134175806, 22.679031567583976, 119.58508810827423, 48.099691754867365, 62.64855058383566 
166.13453842221026, -0.22062544907210882, 22.679032763454327, 118.88809931053528, 48.125894828667825, 62.648255286204176 
165.2105327741866, -0.15940926739871786, 22.679033782971885, 118.19100006727243, 48.15508090911298, 62.6479264137386 
164.28696735960463, -0.09198547235828236, 22.679034525767467, 117.49377790055077, 48.18724622814526, 62.64756402297219 
163.3638818850077, -0.018374668281441634, 22.679034881765443, 116.79642016623048, 48.222386633244525, 62.64716817637579 
162.441315168521, 0.061400700558570415, 22.6790347313537, 116.09891403740427, 48.260497588, 62.64673894239797 
161.51930506811274, 0.14731636978090915, 22.6790339455686, 115.40124648773568, 48.301574172728245, 62.646276395508174 
160.59788841161046, 0.2393462761590567, 22.67903238629446, 114.70340427468786, 48.34561108513569, 62.64578061624361 
159.67710092857985, 0.3374625802493306, 22.679029906477464, 114.00537392263261, 48.392602641023345, 62.64525169125898 
158.75697718416708, 0.44163569032223826, 22.67902635035365, 113.30714170582948, 48.44254277503191, 62.64468971337937 
157.83755051499492, 0.5518342875297886, 22.679021553690667, 112.60869363126334, 48.49542504142457, 62.6440947816563 
156.9188529671979, 0.668025352239047, 22.679015344042995, 111.91001542132999, 48.55124261490528, 62.64346700142628 
156.00091523667095, 0.7901741914597177, 22.679007541020276, 111.21109249635728, 48.609988291469726, 62.64280648437231 
155.08376661159838, 0.9182444672912412, 22.67899795656846, 110.5119099569503, 48.67165448928629, 62.642113348587856 
154.1674349173213, 1.0521982263129428, 22.678986395263234, 109.81245256614771, 48.736233249603856, 62.6413877186435 
153.25194646359242, 1.1919959298391105, 22.678972654615585, 109.1127047313764, 48.80371623768361, 62.64062972565537 
152.33732599425932, 1.3375964849595992, 22.67895652538886, 108.41265048619069, 48.874094743751336, 62.63983950735631 
151.42359663940692, 1.488957276285365, 22.678937791927044, 107.71227347178234, 48.94735968396682, 62.63901720816862 
150.51077986998334, 1.6460341983176703, 22.678916232493773, 107.01155691824641, 49.023501601406814, 62.638162979278825 
149.59889545492263, 1.8087816883592165, 22.678891619621638, 106.310483625588, 49.10251066705772, 62.63727697871401 
148.68796142077142, 1.9771527598852316, 22.678863720471305, 105.6090359444537, 49.18437668081413, 62.636359371419694 
147.77799401381705, 2.151099036292612, 22.67883229720002, 104.90719575657144, 49.269089072479055, 62.63541032933887 
146.86900766470757, 2.3305707849455573, 22.67879710733896, 104.2049444548816, 49.356636902761615, 62.63443003149251 
145.96101495554595, 2.5155169514369016, 22.67875790417892, 103.50226292334095, 49.44700886426778, 62.63341866406047 
145.05402658943402, 2.7058851939848085, 22.67871443716392, 102.7991315163814, 49.54019328247953, 62.63237642046367 
144.1480513624342, 2.9016219178860037, 22.678666452292127, 102.0955300380031, 49.63617811671751, 62.63130350144649 
143.24309613791112, 3.102672309947656, 22.678613692523527, 101.39143772048268, 49.734950961082575, 62.63020011515969 
142.33916582320788, 3.308980372821701, 22.678555898193952, 100.68683320267395, 49.83649904537072, 62.62906647724337 
141.43626334860784, 3.520488959167005, 22.67849280743478, 99.98169450788029, 49.94080923595621, 62.62790281090996 
140.53438964852484, 3.737139805566627, 22.67842415659781, 99.27599902127439, 50.047868036637446, 62.626709347026875 
139.633543644863, 3.9588735661293657, 22.678349680684732, 98.56972346684198, 50.15766158943984, 62.625486324198825 
138.7337222324794, 4.18562984570712, 22.678269113780683, 97.86284388382384, 50.27017567536967, 62.62423398884928 
137.8349202666817, 4.417347232661621, 22.67818218949121, 97.15533560262993, 50.385395715112956, 62.622952595301214 
136.93713055268776, 4.6539633311166, 22.678088641382175, 96.44717322019828, 50.50330676967297, 62.62164240585669 
136.04034383697106, 4.89541479263402, 22.67798820342197, 95.73833057476949, 50.623893540939875, 62.620303690874984 
135.14454880041453, 5.141637347255305, 22.677880610425397, 95.02878072004756, 50.74714037218567, 62.61893672884941 
134.249732053191, 5.3925658338514815, 22.677765598498787, 94.31849589871523, 50.873031248477524, 62.617541806482215 
133.3558781312891, 5.648134229728351, 22.677642905485666, 93.60744751527139, 51.00154979700221, 62.61611921875768 
132.4629694946001, 5.908275679436182, 22.67751227141227, 92.89560610815657, 51.13267928729421, 62.61466926901273 
131.57098652648165, 6.172922522735339, 22.677373438932637, 92.1829413211311, 51.266402631359696, 62.613192269005474 
130.67990753471352, 6.44200632167288, 22.677226153772345, 91.46942187386824, 51.4027023836885, 62.611688538981 
129.78970875376046, 6.7154578867271395, 22.67707016517054, 90.75501553172467, 51.54156074114555, 62.610158407734296 
128.90036434825683, 6.993207301980711, 22.67690522631958, 90.03968907464662, 51.68295954273353, 62.60860221267004 
128.0118464176306, 7.2751839492844175, 22.676731094801703, 89.32340826517083, 51.82688026921746, 62.607020299859464 
127.12412500178293, 7.56131653137799, 22.676547533022273, 88.60613781547545, 51.97330404260238, 62.60541302409328 
126.23716808774228, 7.851533093935681, 22.676354308638743, 87.88784135343543, 52.12221162545442, 62.60378074893138 
125.35094161721457, 8.145761046507435, 22.676151194985174, 87.16848138763469, 52.27358342005521, 62.602123846748356 
124.46540949495109, 8.443927182329345, 22.675937971491386, 86.44801927128476, 52.427399467379686, 62.60044269877491 
123.58053359786025, 8.74595769697898, 22.675714424096395, 85.7264151649987, 52.583639445886305, 62.598737695135306 
122.69627378479103, 9.051778205854228, 22.675480345655497, 85.00362799836498, 52.74228267010885, 62.59700923487991 
121.81258790691942, 9.36131376045612, 22.67523553634055, 84.27961543026612, 52.90330808903812, 62.59525772601337 
120.92943181867197, 9.67448886345904, 22.674979804032777, 83.55433380788193, 53.06669428428176, 62.59348358551768 
120.04675938912547, 9.991227482553233, 22.67471296470773, 82.82773812431716, 53.23241946798953, 62.59168723937042 
119.1645225138234, 10.311453063047395, 22.674434842811845, 82.09978197478868, 53.40046148053135, 62.58986912255768 
118.28267112695657, 10.63508853922075, 22.674145271629964, 81.3704175113062, 53.570797787914366, 62.588029679081316 
117.40115321385744, 10.962056344416112, 22.67384409364357, 80.63959539577714, 53.74340547892524, 62.58616936196111 
116.51991482376324, 11.29227841986778, 22.673531160879058, 79.90726475146323, 53.91826126198287, 62.584288633230685 
115.63890008280754, 11.62567622225912, 22.673206335245663, 79.17337311271415, 54.095341461686296, 62.58238796392786 
114.7580512072048, 11.962170730007644, 22.67286948886257, 78.4378663728995, 54.27462201504191, 62.58046783407865 
113.87730851659776, 12.301682448275868, 22.67252050437477, 77.70068873045878, 54.456078467353244, 62.57852873267533 
112.99661044754221, 12.64413141270916, 22.672159275257265, 76.9617826329838, 54.639685967756094, 62.576571157647884 
112.11589356711008, 12.989437191902176, 22.671785706107116, 76.22108871924702, 54.825419264380685, 62.57459561582906 
111.23509258659692, 13.337518888598128, 22.67139971292307, 75.47854575908356, 55.01325269912189, 62.57260262291271 
110.35414037532566, 13.688295139625797, 22.671001223372215, 74.73409059103318, 55.20316020199777, 62.57059270340557 
109.47296797454506, 14.041684114581148, 22.670590177043543, 73.98765805764396, 55.39511528507537, 62.56856639057187 
108.59150461142684, 14.397603513261645, 22.670166525687744, 73.23918093833535, 55.589091035942396, 62.566524226371165 
107.70967771317267, 14.755970561862735, 22.6697302334432, 72.48858987971656, 55.7850601107014, 62.5644667613889 
106.82741292124794, 15.116702007947504, 22.669281277047656, 71.73581332325007, 55.98299472646315, 62.56239455476006 
105.94463410576708, 15.47971411420157, 22.66881964603538, 70.98077743014841, 56.18286665331358, 62.5603081740851 
105.06126338006108, 15.844922650986993, 22.66834534291945, 70.22340600338734, 56.3846472057285, 62.558208195338935 
