# MEX_intpoint_lon [deg], MEX_intpoint_lat [deg], MEX_intpoint_angle [deg], TGO_intpoint_lon [deg], TGO_intpoint_lat [deg], TGO_intpoint_angle [deg] 
-104.89067320179717, 20.636809347098072, 22.87516523413464, 177.52123689258266, 58.69266374737947, 62.538140677677006 
-105.78198493388206, 20.240645564953127, 22.875818405375018, 176.74704652524733, 58.45925682434108, 62.54047872360242 
-106.67158663237558, 19.84564162777367, 22.87645931623307, 175.97619994681716, 58.227474439438545, 62.54281038708279 
-107.55958124496236, 19.451890024098688, 22.87708778616377, 175.20858400335177, 57.99735142108595, 62.5451349626923 
-108.44607004154545, 19.05948255652034, 22.877703649468337, 174.44408934608617, 57.76892200753744, 62.54745175235718 
-109.3311525958921, 18.668510365036205, 22.878306755313677, 173.68261029072934, 57.54221986470098, 62.54976006555095 
-110.21492676837256, 18.279063949371096, 22.878896967733912, 172.92404468259974, 57.31727810289433, 62.55205921948125 
-111.09748868964628, 17.891233190236907, 22.879474165614063, 172.16829376735723, 57.09412929259714, 62.55434853926801 
-111.9789327451624, 17.505107369501037, 22.88003824265588, 171.41526206709358, 56.87280547925063, 62.556627358112934 
-112.85935156035043, 17.120775189235875, 22.880589107326045, 170.66485726155577, 56.653338197153126, 62.55889501746054 
-113.73883598638993, 16.73832478962349, 22.881126682786682, 169.9169900742794, 56.435758482497526, 62.56115086715033 
-114.61747508645546, 16.357843765691634, 22.88165090680848, 169.17157416342138, 56.22009688559413, 62.56339426556057 
-115.49535612234497, 15.97941918285845, 22.882161731666464, 168.42852601708535, 56.00638348231981, 62.56562457974354 
-116.3725645414083, 15.603137591264858, 22.882659124018595, 167.68776485294254, 55.79464788483267, 62.56784118555205 
-117.24918396370123, 15.229085038875146, 22.883143064767573, 166.94921252195866, 55.584919251588914, 62.570043467757564 
-118.12529616930082, 14.857347083327285, 22.883613548905682, 166.21279341604256, 55.37722629669709, 62.57223082015996 
-119.00098108572413, 14.488008802516257, 22.884070585343405, 165.47843437944277, 55.171597298642745, 62.5744026456888 
-119.87631677540305, 14.121154803894335, 22.884514196721536, 164.74606462372208, 54.96806010841494, 62.57655835649638 
-120.75137942317417, 13.75686923247421, 22.88494441920758, 164.0156156461493, 54.76664215706454, 62.5786973740426 
-121.62624332375128, 13.395235777521286, 22.885361302276326, 163.2870211513529, 54.56737046272254, 62.580819129171466 
-122.50098086915561, 13.036337677923383, 22.885764908475053, 162.56021697608784, 54.37027163710548, 62.582923062179965 
-123.37566253608595, 12.68025772622679, 22.886155313173838, 161.83514101697423, 54.175371891533246, 62.58500862287867 
-124.25035687321777, 12.327078271329263, 22.88653260430106, 161.11173316107036, 53.9826970424839, 62.5870752706447 
-125.1251304884281, 11.976881219821362, 22.886896882064665, 160.38993521915077, 53.79227251670847, 62.58912247446702 
-126.00004803594908, 11.62974803596934, 22.88724825865945, 159.66969086156428, 53.60412335592774, 62.59114971298404 
-126.87517220345897, 11.285759740333837, 22.88758685796085, 158.95094555655285, 53.41827422113214, 62.593156474514075 
-127.7505636991275, 10.944996907019924, 22.887912815205638, 158.2336465109167, 53.23474939650452, 62.59514225707828 
-128.62628123863655, 10.60753965955595, 22.88822627665987, 157.51774261291757, 53.053572792985165, 62.597106568416564 
-129.50238153220474, 10.27346766539964, 22.888527399274675, 156.80318437731484, 52.8747679514969, 62.59904892599672 
-130.37891927164893, 9.94286012907197, 22.888816350330217, 156.08992389243562, 52.69835804584805, 62.60096885701646 
-131.25594711752228, 9.615795783920595, 22.889093307068425, 155.37791476918318, 52.52436588532946, 62.60286589839922 
-132.13351568637327, 9.292352882516708, 22.88935845631486, 154.66711209189293, 52.352813917021905, 62.60473959678323 
-133.0116735381754, 8.972609185690839, 22.889611994090313, 153.957472370949, 52.18372422782865, 62.6065895085046 
-133.890467163982, 8.656641950215098, 22.889854125212647, 153.24895349707793, 52.01711854624806, 62.60841519957415 
-134.76994097386628, 8.344527915141425, 22.89008506288935, 152.54151469724127, 51.85301824390002, 62.610216245648566 
-135.65013728520975, 8.036343286807403, 22.890305028301377, 151.8351164920497, 51.69144433681968, 62.611992231995906 
-136.53109631140788, 7.732163722523452, 22.890514250178846, 151.12972065462787, 51.53241748653124, 62.613742753455504 
-137.41285615106506, 7.4320643129576816, 22.89071296436919, 150.42529017085945, 51.375958000914196, 62.61546741439301 
-138.29545277775486, 7.136119563236692, 22.8909014133981, 149.7217892009477, 51.222085834873916, 62.617165828649995 
-139.1789200304256, 6.844403372783345, 22.89107984602428, 149.0191830422271, 51.070820590827914, 62.618837619489234 
-140.06328960453322, 6.556989013915167, 22.891248516788075, 148.3174380931669, 50.92218151901874, 62.620482419535044 
-140.94859104398864, 6.273949109229316, 22.89140768555505, 147.61652181850883, 50.77618751766422, 62.62209987070958 
-141.834851734006, 5.995355607803131, 22.89155761705473, 146.9164027154832, 50.632857132955024, 62.62368962416495 
-142.7220968949444, 5.721279760241873, 22.89169858041541, 146.21705028105245, 50.4922085589096, 62.62525134021148 
-143.61034957723388, 5.451792092608105, 22.891830848695445, 145.5184349801306, 50.35425963709576, 62.62678468824235 
-144.49963065748125, 5.18696237927011, 22.891954698411688, 144.8205282147315, 50.2190278562281, 62.62828934665494 
-145.38995883584943, 4.926859614709734, 22.892070409065827, 144.1233022940002, 50.086530351650254, 62.629765002768835 
-146.28135063480732, 4.6715519843329245, 22.89217826266899, 143.42673040508362, 49.95678390471027, 62.6312113527413 
-147.17382039934603, 4.421106834329245, 22.892278543265483, 142.73078658479844, 49.8298049420375, 62.63262810147977 
-148.06738029875692, 4.175590640629848, 22.89237153645619, 142.03544569205764, 49.705609534729, 62.63401496255212 
-148.96204033006822, 3.9350689770161216, 22.892457528922183, 141.34068338101594, 49.58421339745299, 62.63537165809471 
-149.85780832323314, 3.6996064824345325, 22.892536807949355, 140.64647607489985, 49.465631887477116, 62.636697918718575 
-150.7546899481634, 3.4692668275759586, 22.892609660954523, 139.9528009404856, 49.34988000362838, 62.63799348341397 
-151.6526887236981, 3.2441126807809364, 22.8926763750137, 139.25963586319367, 49.23697238519206, 62.639258099453336 
-152.55180602859724, 3.024205673334908, 22.892737236393202, 138.5669594227669, 49.12692331075624, 62.64049152229334 
-153.45204111464378, 2.8096063642206555, 22.892792530084105, 137.8747508695032, 49.019746697008365, 62.64169351547578 
-154.35339112193665, 2.6003742043976588, 22.892842539340755, 137.1829901010129, 48.91545609749056, 62.642863850527974 
-155.2558510964524, 2.3965675006807046, 22.89288754522387, 136.49165763947406, 48.81406470131932, 62.644002306862404 
-156.1594140099477, 2.198243379292761, 22.89292782614893, 135.80073460935904, 48.71558533187596, 62.64510867167662 
-157.06407078227107, 2.0054577491693766, 22.892963657440294, 135.11020271560733, 48.620030445473404, 62.64618273985264 
-157.9698103061459, 1.8182652650940272, 22.89299531089186, 134.42004422222055, 48.52741213000478, 62.64722431385707 
-158.87661947448055, 1.6367192907459804, 22.89302305433456, 133.73024193125693, 48.43774210357929, 62.64823320364138 
-159.78448321025613, 1.4608718617439567, 22.893047151211547, 133.04077916220308, 48.351031713150654, 62.64920922654291 
-160.69338449903304, 1.2907736487706432, 22.893067860161473, 132.35163973170242, 48.26729193314291, 62.65015220718715 
-161.60330442411248, 1.1264739208643508, 22.89308543461038, 131.6628079336199, 48.186533364078514, 62.65106197739063 
-162.51422220437948, 0.9680205089653698, 22.893100122372903, 130.97426851942456, 48.10876623121361, 62.65193837606576 
-163.42611523484703, 0.8154597698054397, 22.89311216526309, 130.2860066788711, 48.03400038318451, 62.65278124912664 
-164.33895912991093, 0.6688365502293303, 22.89312179871564, 129.59800802096285, 47.96224529067022, 62.65359044939713 
-165.25272776931743, 0.528194152038004, 22.89312925141776, 128.91025855518035, 47.89351004507477, 62.65436583652063 
-166.16739334683544, 0.3935742974426957, 22.89313474495232, 128.22274467295853, 47.827803357233556, 62.65510727687208 
-167.08292642161672, 0.2650170952190874, 22.89313849345276, 127.53545312939795, 47.76513355614755, 62.6558146434723 
-167.99929597221694, 0.1425610076501363, 22.89314070327009, 126.84837102519495, 47.70550858774879, 62.656487815904995 
-168.91646945324106, 0.02624281834524723, 22.893141572652606, 126.16148578877699, 47.64893601370093, 62.657126680236175 
-169.83441285456735, -0.08390239897786599, 22.89314129143856, 125.47478515862979, 47.5954230102381, 62.65773112893678 
-170.75309076309338, -0.18784131066367274, 22.89314004076238, 124.78825716580283, 47.54497636704519, 62.65830106080811 
-171.6724664269385, -0.2855423521589017, 22.89313799277461, 124.10189011658171, 47.49760248618244, 62.658836380910444 
-172.59250182202697, -0.37697575584132537, 22.89313531037616, 123.41567257531453, 47.453307381057705, 62.65933700049522 
-173.51315772096663, -0.46211357755930543, 22.89313214696712, 122.7295933473815, 47.41209667544834, 62.65980283694047 
-174.43439376412874, -0.5409297218067998, 22.89312864621037, 122.04364146229646, 47.3739756025758, 62.66023381368986 
-175.35616853282505, -0.613399965461872, 22.89312494181054, 121.3578061569297, 47.33894900423508, 62.66062986019562 
-176.27843962446954, -0.6795019800202896, 22.89312115730843, 120.67207685884179, 47.30702132998122, 62.66099091186526 
-177.20116372960445, -0.7392153522596201, 22.893117405891136, 119.98644316971864, 47.27819663637485, 62.66131691001208 
-178.12429671066073, -0.7925216032733376, 22.893113790218344, 119.30089484889778, 47.25247858628877, 62.66160780181 
-179.0477936823174, -0.8394042058189642, 22.893110402264792, 118.61542179697699, 47.22987044827709, 62.66186354025237 
-179.97160909331566, -0.8798485999287236, 22.893107323179265, 117.93001403949566, 47.21037509600873, 62.66208408411503 
179.104303190422, -0.9138422067364173, 22.893104623160184, 117.24466171068049, 47.193995007766276, 62.66226939792369 
178.17998980152316, -0.9413744404789685, 22.893102361348138, 116.55935503724632, 47.180732266011745, 62.662419451925786 
177.25549778590877, -0.962436718636758, 22.89310058573528, 115.87408432224424, 47.17058855702014, 62.66253422206657 
176.33087451671292, -0.9770224701820108, 22.893099333091865, 115.18883992894776, 47.16356517058161, 62.66261368996973 
175.4061676075489, -0.9851271419105027, 22.893098628909993, 114.5036122647697, 47.15966299977314, 62.66265784292262 
174.48142482529312, -0.9867482028372088, 22.893098487364583, 113.8183917652009, 47.15888254080002, 62.662666673866084 
173.55669400256127, -0.9818851466427105, 22.893098911291716, 113.13316887776318, 47.16122389290773, 62.66264018138855 
172.63202295005215, -0.9705394921628404, 22.893099892184267, 112.44793404596821, 47.166686758364236, 62.66257836972496 
171.70745936893601, -0.9527147819200854, 22.89310141020491, 111.76267769327438, 47.17527044251303, 62.66248124876027 
170.78305076346248, -0.9284165787012933, 22.893103434216542, 111.07739020703372, 47.18697385389635, 62.66234883403729 
169.85884435396397, -0.8976524601919376, 22.893105921829818, 110.3920619224206, 47.201795504448675, 62.662181146769434 
168.9348869904272, -0.8604320116833075, 22.89310881946813, 109.70668310633442, 47.219733509760005, 62.6619782138577 
168.01122506680392, -0.8167668168746881, 22.893112062449593, 109.02124394126771, 47.24078558940795, 62.66174006791228 
167.0879044362277, -0.7666704467982557, 22.893115575086096, 108.33573450913164, 47.26494906735828, 62.66146674727852 
166.16497032730035, -0.7101584469000068, 22.893119270799282, 107.65014477503041, 47.29222087243273, 62.6611582960675 
165.24246726160618, -0.6472483223155319, 22.893123052253298, 106.96446457097582, 47.32259753884295, 62.66081476419076 
164.32043897260684, -0.577959521384446, 22.893126811504025, 106.27868357953346, 47.356075206789434, 62.6604362073992 
163.398928326064, -0.5023134174525948, 22.89313043016478, 105.59279131739126, 47.39264962312381, 62.66002268732656 
162.47797724212947, -0.4203332890156256, 22.893133779588158, 104.90677711884135, 47.43231614207304, 62.65957427153651 
161.5576266192357, -0.332044298262356, 22.893136721063694, 104.22063011916578, 47.47506972602357, 62.65909103357424 
160.6379162599116, -0.23747346808036301, 22.89313910603133, 103.53433923791607, 47.520904946363686, 62.6585730530215 
159.71888479864097, -0.13664965759046646, 22.893140776310084, 102.84789316207666, 47.56981598438179, 62.65802041555573 
158.80056963187042, -0.02960353628023572, 22.893141564341903, 102.16128032910187, 47.621796632218384, 62.65743321301275 
157.88300685026752, 0.08363244318976425, 22.893141293450185, 101.47448890981532, 47.67684029386939, 62.65681154345307 
156.96623117331777, 0.2030240734303334, 22.893139778112726, 100.78750679116071, 47.73493998623806, 62.656155511231475 
156.05027588634155, 0.3285354219391487, 22.893136824248657, 100.10032155879227, 47.79608834023285, 62.65546522706997 
155.13517278000165, 0.46012886180558626, 22.893132229519093, 99.41292047949273, 47.860277601908294, 62.654740808133816 
154.220952092362, 0.5977651034209115, 22.893125783640965, 98.7252904834061, 47.92749963364571, 62.65398237811059 
153.3076424535493, 0.7414032271081572, 22.893117268713738, 98.0374181460722, 47.99774591537055, 62.653190067291774 
152.39527083305845, 0.8910007165846666, 22.89310645955848, 97.34928967024914, 48.07100754580305, 62.652364012657365 
151.48386248973378, 1.0465134931690498, 22.893093124068933, 96.66089086750938, 48.147275243738385, 62.651504357962615 
150.57344092444734, 1.2078959506437463, 22.893077023574012, 95.97220713959459, 48.226539349352855, 62.65061125382714 
149.66402783548747, 1.3751009906838465, 22.893057913211372, 95.28322345951341, 48.30878982553197, 62.649684857826045 
148.7556430766598, 1.548080058762709, 22.89303554231141, 94.59392435236596, 48.3940162592164, 62.64872533458308 
147.84830461809582, 1.7267831804451534, 22.893009654791342, 93.90429387587803, 48.48220786276177, 62.64773285586514 
146.94202850975336, 1.9111589979794275, 22.892979989558714, 93.21431560062709, 48.57335347530746, 62.64670760067862 
146.03682884758635, 2.101154807100054, 22.892946280923848, 92.52397258994132, 48.66744156415027, 62.64564975536683 
145.1327177423527, 2.2967165939544016, 22.89290825902075, 91.83324737945223, 48.76446022611793, 62.644559513708316 
144.22970529102102, 2.4977890720674916, 22.892865650235777, 91.14212195628055, 48.86439718893761, 62.643437077016316 
143.32779955073082, 2.70431571926064, 22.892818177643672, 90.45057773783365, 48.967239812594244, 62.642282654238485 
142.42700651525234, 2.9162388144417184, 22.892765561450243, 89.75859555019242, 49.072975090673616, 62.64109646205728 
141.52733009388766, 3.133499474186273, 22.892707519441142, 89.06615560606419, 49.18158965168442, 62.6398787249902 
140.6287720927474, 3.356037689031338, 22.89264376743625, 88.3732374822765, 49.29306976035393, 62.63862967549026 
139.73133219833306, 3.5837923594055976, 22.892574019748928, 87.6798200967873, 49.407401318891196, 62.63734955404576 
138.83500796334909, 3.8167013311224505, 22.892497989649584, 86.98588168518312, 49.524569868212, 62.636038609279844 
137.93979479466557, 4.0547014303646876, 22.892415389833, 86.29139977663826, 49.644560589118974, 62.63469709804894 
137.04568594334822, 4.297728498092431, 22.892325932888717, 85.5963511693051, 49.76735830343082, 62.633325285540415 
136.15267249666792, 4.545717423808755, 22.892229331773894, 84.90071190510415, 49.89294747505371, 62.63192344536871 
135.26074337200183, 4.79860217862001, 22.892125300288065, 84.20445724388252, 50.02131221098806, 62.630491859670066 
134.36988531253226, 5.056315847531254, 22.892013553549052, 83.5075616369059, 50.1524362622636, 62.6290308191955 
133.48008288465172, 5.318790660919616, 22.891893808469565, 82.80999869964931, 50.286303024795416, 62.62754062340159 
132.59131847697736, 5.585958025131976, 22.891765784233705, 82.11174118384903, 50.422895540153235, 62.62602158053914 
131.7035723008802, 5.857748552155845, 22.891629202772872, 81.4127609487772, 50.56219649623633, 62.624474007739224 
130.81682239243233, 6.134092088315848, 22.89148378924037, 80.71302893169799, 50.7041882278458, 62.622898231096514 
129.9310446156765, 6.41491774195077, 22.891329272484107, 80.01251511746304, 50.848852717145725, 62.6212945857497 
129.04621266712186, 6.700153910029549, 22.891165385516782, 79.31118850720114, 50.99617159400487, 62.6196634159583 
128.16229808137183, 6.98972830366718, 22.89099186598291, 78.60901708605587, 51.14612613620955, 62.618005075176505 
127.2792702377907, 7.283567972504683, 22.890808456622203, 77.90596778992186, 51.298697269538565, 62.61631992612276 
126.39709636811668, 7.58159932792021, 22.89061490572836, 77.20200647112834, 51.45386556769057, 62.614608340845884 
125.51574156493311, 7.883748165040685, 22.890410967603135, 76.49709786301682, 51.61161125205387, 62.612870700786495 
124.6351687909094, 8.189939683526916, 22.890196403004687, 75.79120554335606, 51.771914191308035, 62.61110739683446 
123.75533888872856, 8.500098507107014, 22.88997097958981, 75.0842918965359, 51.93475390084699, 62.60931882938131 
122.87621059161907, 8.814148701836075, 22.889734472349417, 74.37631807447802, 52.10010954201207, 62.607505408368 
121.99774053441412, 9.1320137930623, 22.889486664036752, 73.66724395619944, 52.26795992112339, 62.60566755332753 
121.1198832650631, 9.453616781082388, 22.889227345587667, 72.95702810596079, 52.438283488297806, 62.60380569342211 
120.24259125652587, 9.778880155471029, 22.888956316532465, 72.245627729929, 52.611058336040344, 62.60192026747509 
119.36581491898292, 10.107725908072046, 22.888673385398793, 71.53299863128, 52.7862621975965, 62.60001172399678 
118.48950261230019, 10.44007554464041, 22.88837837010498, 70.81909516366407, 52.96387244505136, 62.59808052120459 
117.6136006586914, 10.775850095126707, 22.888071098343406, 70.10387018295286, 53.14386608716148, 62.59612712703698 
116.73805335552528, 11.114970122597617, 22.88775140795317, 69.3872749971825, 53.32621976690467, 62.59415201916109 
115.86280298823117, 11.457355730787551, 22.887419147281925, 68.66925931460463, 53.510909758731984, 62.59215568497375 
114.98778984326029, 11.80292657027889, 22.887074175535986, 67.94977118975162, 53.697911965505824, 62.59013862159596 
114.11295222106722, 12.15160184330937, 22.886716363118506, 67.22875696741907, 53.887201915107084, 62.588101335860465 
113.23822644907986, 12.503300307207446, 22.88634559195528, 66.50616122446318, 54.078754756693634, 62.58604434429221 
112.36354689463361, 12.857940276457397, 22.885961755807497, 65.78192670930694, 54.27254525659135, 62.58396817308174 
111.48884597785072, 13.215439623397986, 22.885564760571256, 65.05599427904288, 54.46854779379844, 62.58187335805124 
110.61405418445176, 13.575715777559532, 22.885154524563383, 64.32830283401643, 54.66673635508224, 62.57976044461294 
109.73910007849382, 13.938685723645738, 22.88473097879305, 63.598789249767606, 54.86708452964727, 62.5776299877202 
108.86391031503466, 14.304265998168107, 22.884294067218917, 62.867388306203246, 55.069565503351896, 62.575482551810616 
107.98840965273105, 14.672372684741731, 22.883843746991477, 62.13403261386731, 55.274152052449764, 62.57331871074123 
107.11252096638454, 15.042921408052893, 22.8833799886801, 61.3986525371692, 55.48081653683135, 62.57113904771616 
106.23616525945683, 15.415827326509735, 22.88290277648469, 60.66117611442545, 55.68953089273894, 62.56894415520552 
105.35926167658273, 15.79100512358888, 22.882412108431396, 59.92152897456274, 55.90026662492797, 62.56673463485674 
