# MEX_intpoint_lon [deg], MEX_intpoint_lat [deg], MEX_intpoint_angle [deg], TGO_intpoint_lon [deg], TGO_intpoint_lat [deg], TGO_intpoint_angle [deg] 
-104.04812952294446, 20.44574295306254, 22.363277454401857, -151.99593775647443, 59.10928132825825, 62.528779532837014 
-104.95528679789726, 20.075854461667827, 22.36386806355276, -152.79312290164418, 58.88791369412628, 62.530978792975084 
-105.86074959657216, 19.70697679774725, 22.36444821173343, -153.58675903775273, 58.66803456362464, 62.53317240897611 
-106.76460993786127, 19.339199767932897, 22.365017734731605, -154.37695973344066, 58.4496793929225, 62.53535971657055 
-107.66695850281833, 18.97261251530351, 22.36557648099924, -155.16383496183215, 58.23288301130885, 62.537540057967256 
-108.56788460675993, 18.60730353641996, 22.366124311672056, -155.94749122306908, 58.017679639553656, 62.53971278203897 
-109.46747617279459, 18.24336069762794, 22.36666110057383, -156.72803166244273, 57.804102907262475, 62.541877244499986 
-110.36581970665128, 17.880871250590904, 22.367186734205397, -157.5055561842562, 57.59218586927131, 62.544032808076636 
-111.2630002726896, 17.51992184701814, 22.3677011117185, -158.28016156155383, 57.38196102112746, 62.54617884266992 
-112.15910147098012, 17.160598552555445, 22.36820414487449, -159.05194154185244, 57.17346031369903, 62.54831472551044 
-113.05420541535364, 16.80298685980753, 22.368695757988004, -159.8209869490089, 56.96671516695434, 62.5504398413063 
-113.9483927123245, 16.447171700463752, 22.36917588785575, -160.58738578135734, 56.76175648295022, 62.552553582382544 
-114.84174244080218, 16.09323745650022, 22.369644483670495, -161.3512233062477, 56.558614658066475, 62.55465534881391 
-115.73433213251235, 15.741267970433123, 22.37010150692047, -162.11258215111542, 56.357319594522046, 62.5567445485494 
-116.6262377530565, 15.391346554600354, 22.370546931274223, -162.8715423912085, 56.15790071120663, 62.558820597529824 
-117.51753368354625, 15.043555999449342, 22.370980742451305, -163.62818163409779, 55.96038695385992, 62.56088291979737 
-118.40829270275562, 14.697978580811474, 22.371402938078756, -164.38257510109074, 55.764806804629494, 62.56293094759842 
-119.29858596974205, 14.354696066144244, 22.37181352753387, -165.1347957056685, 55.571188291036144, 62.56496412147827 
-120.18848300689261, 14.01378971972454, 22.37221253177323, -165.88491412906063, 55.37955899437499, 62.566981890369284 
-121.0780516833597, 13.675340306777324, 22.372599983148355, -166.63299889307106, 55.18994605757883, 62.56898371167132 
-121.96735819885592, 13.339428096526001, 22.37297592520837, -167.37911643026283, 55.002376192569066, 62.57096905132528 
-122.85646706778479, 13.006132864151828, 22.37334041248969, -168.12333115160854, 54.81687568711862, 62.57293738387959 
-123.74544110368947, 12.675533891651497, 22.373693510293293, -168.86570551170817, 54.63347041124975, 62.57488819254974 
-124.63434140400828, 12.34770996758339, 22.37403529444968, -169.60630007167347, 54.4521858231891, 62.576820969271004 
-125.52322733513064, 12.02273938569442, 22.37436585107208, -170.34517355977488, 54.27304697490089, 62.57873521474429 
-126.41215651775344, 11.700699942421215, 22.374685276297953, -171.08238292994284, 54.09607851721861, 62.58063043847584 
-127.30118481254289, 11.381668933260462, 22.37499367601941, -171.8179834182138, 53.9213047045942, 62.58250615880984 
-128.19036630611205, 11.065723148005441, 22.3752911656028, -172.55202859720583, 53.74874939948353, 62.584361902955116 
-129.07975329732983, 10.752938864846659, 22.375577869597805, -173.28457042870812, 53.5784360763856, 62.58619720700569 
-129.969396283981, 10.44339184333702, 22.375853921436555, -174.01565931446297, 53.41038782555234, 62.58801161595478 
-130.8593439498034, 10.137157316222691, 22.376119463123043, -174.74534414521867, 53.24462735638534, 62.58980468370355 
-131.74964315193054, 9.834309980143669, 22.37637464491339, -175.47367234812614, 53.08117700053489, 62.5915759730636 
-132.6403389087748, 9.534923985208748, 22.37661962498732, -176.20068993255214, 52.920058714716355, 62.59332505575411 
-133.53147438838812, 9.239072923452445, 22.376854569111167, -176.92644153437564, 52.76129408325784, 62.59505151239349 
-134.4230908973431, 8.946829816182643, 22.377079650293172, -177.65097045883573, 52.604904320393345, 62.59675493248581 
-135.31522787017946, 8.658267100229997, 22.377295048431215, -178.37431872199227, 52.45091027231402, 62.59843491440212 
-136.20792285946592, 8.373456613112145, 22.37750094995364, -179.09652709086188, 52.299332418990474, 62.600091065356956 
-137.10121152652917, 8.092469577127796, 22.37769754745354, -179.81763512228662, 52.15019087577835, 62.60172300138002 
-137.99512763290588, 7.815376582397976, 22.377885039317118, 179.4623187994075, 52.0035053948185, 62.60333034728339 
-138.8897030325765, 7.542247568873611, 22.37806362934651, 178.74329742590893, 51.85929536624331, 62.60491273662442 
-139.78496766504085, 7.273151807331418, 22.378233526377564, 178.0252646095236, 51.7175798192, 62.606469811664496 
-140.6809495492997, 7.008157879381613, 22.37839494389315, 177.3081852688329, 51.578377422701074, 62.608001223323825 
-141.57767477880654, 6.74733365651396, 22.378548099632518, 176.5920253553592, 51.44170648631222, 62.60950663113256 
-142.47516751745698, 6.490746278210555, 22.37869321519713, 175.8767518211927, 51.307584960687244, 62.6109857031782 
-143.37344999668386, 6.238462129156242, 22.37883051565358, 175.16233258753553, 51.17603043795936, 62.61243811605 
-144.2725425137273, 5.990546815580087, 22.378960229134044, 174.44873651412178, 51.04706015199798, 62.61386355477991 
-145.17246343114954, 5.747065140763624, 22.379082586434926, 173.73593336947198, 50.92069097853942, 62.615261712780786 
-146.07322917766524, 5.508081079753994, 22.379197820614014, 173.02389380194387, 50.79693943520045, 62.61663229178194 
-146.97485425035777, 5.273657753322578, 22.379306166586936, 172.31258931154218, 50.675821681382075, 62.617975001761984 
-147.8773512183509, 5.043857401212199, 22.37940786072317, 171.6019922224517, 50.557353518072155, 62.6192895608797 
-148.7807307280066, 4.818741354718168, 22.379503140442463, 170.89207565625927, 50.4415503875539, 62.620575695402536 
-149.68500150971576, 4.598370008651079, 22.379592243811807, 170.18281350583212, 50.32842737302777, 62.621833139633594 
-150.5901703863504, 4.382802792731303, 22.379675409143896, 169.47418040982126, 50.2179991981539, 62.623061635836486 
-151.49624228344106, 4.172098142467728, 22.379752874597337, 168.76615172775945, 50.11028022652174, 62.624260934159366 
-152.40322024114317, 3.9663134695751254, 22.37982487777918, 168.05870351572497, 50.00528446105385, 62.625430792557324 
-153.31110542805231, 3.7655051319870436, 22.379891655350367, 167.3518125025437, 49.90302554334976, 62.62657097671376 
-154.2198971569257, 3.5697284035229657, 22.379953442634605, 166.64545606650287, 49.80351675297657, 62.62768125996125 
-155.1295929023637, 3.3790374432703674, 22.380010473231106, 165.9396122125506, 49.706771006711996, 62.628761423201716 
-156.04018832050173, 3.1934852647443788, 22.380062978631813, 165.2342595499578, 49.61280085774567, 62.629811254825874 
-156.95167727075793, 3.0131237048893063, 22.38011118784346, 164.52937727041808, 49.52161849484436, 62.630830550633185 
-157.86405183967875, 2.838003392987854, 22.3801553270152, 163.82494512656382, 49.433235741486484, 62.63181911375109 
-158.77730236691824, 2.6681737195454214, 22.380195619072047, 163.12094341087666, 49.347664054971055, 62.63277675455499 
-159.69141747338296, 2.503682805217977, 22.380232283354804, 162.41735293497214, 49.264914525506214, 62.633703290588436 
-160.60638409156778, 2.3445774698532533, 22.38026553526682, 161.71415500923803, 49.18499787528193, 62.63459854648397 
-161.5221874981025, 2.1909032017158414, 22.380295585928142, 161.01133142280833, 49.10792445753201, 62.635462353884584 
-162.43881134852336, 2.0427041269674526, 22.380322641837452, 160.30886442385398, 49.033704255589335, 62.636294551366554 
-163.35623771427592, 1.9000229794742052, 22.380346904542282, 159.60673670017326, 48.96234688193919, 62.63709498436308 
-164.274447121951, 1.7629010710129696, 22.380368570317916, 158.90493136006498, 48.893861577274336, 62.63786350508938 
-165.19341859474636, 1.631378261949091, 22.380387829855408, 158.2034319134682, 48.82825720955639, 62.638599972469244 
-166.1131296961412, 1.5054929324573514, 22.380404867959143, 157.50222225335366, 48.76554227308667, 62.6393042520635 
-167.0335565757633, 1.3852819543578776, 22.38041986325434, 156.80128663735127, 48.70572488759085, 62.63997621599996 
-167.95467401742025, 1.2707806636378924, 22.380432987904832, 156.10060966959983, 48.648812797320375, 62.640615742905695 
-168.8764554892601, 1.1620228337294973, 22.38044440734162, 155.4001762828054, 48.59481337017426, 62.64122271784111 
-169.7988731960184, 1.0590406496122886, 22.380454280002425, 154.69997172049466, 48.54373359684447, 62.64179703223673 
-170.72189813330172, 0.9618646828083892, 22.380462757082647, 153.99998151945067, 48.495580089987676, 62.64233858383207 
-171.64550014385006, 0.8705238673357992, 22.380469982298074, 153.30019149231936, 48.45035908342651, 62.642847276617196 
-172.56964797571345, 0.7850454766839711, 22.380476091659663, 152.60058771037365, 48.40807643138288, 62.64332302077707 
-173.49430934227053, 0.705455101873492, 22.380481213260587, 151.901156486425, 48.3687376077459, 62.64376573263851 
-174.41945098401052, 0.6317766306592261, 22.380485467076017, 151.2018843578706, 48.332347705376854, 62.6441753346203 
-175.34503873199225, 0.5640322279337392, 22.3804889647757, 150.50275806986565, 48.29891143545343, 62.64455175518625 
-176.27103757288847, 0.5022423173848536, 22.38049180954976, 149.80376455861042, 48.26843312685528, 62.644894928801236 
-177.19741171551627, 0.4464255644582255, 22.38049409594784, 149.10489093474183, 48.24091672559281, 62.64520479589077 
-178.1241246587494, 0.39659886067231304, 22.38049590973184, 148.4061244668198, 48.21636579428105, 62.64548130280372 
-179.05113926070214, 0.35277730932980483, 22.38049732774243, 147.70745256489886, 48.194783511660056, 62.645724401778416 
-179.97841780906953, 0.3149742126658036, 22.380498417779528, 147.00886276417563, 48.17617267216345, 62.64593405091223 
179.0940779074964, 0.28320106046904947, 22.380499238496956, 146.31034270870276, 48.160535685536345, 62.64611021413476 
178.16638652709833, 0.2574675202086846, 22.380499839311252, 145.6118801351608, 48.14787457650363, 62.64625286118461 
177.23854704152214, 0.23778142869464336, 22.38050026032498, 144.91346285667885, 48.13819098448993, 62.64636196758968 
176.31059872251274, 0.2241487852956309, 22.380500532264435, 144.21507874669538, 48.13148616339173, 62.646437514651346 
175.38258104753228, 0.21657374673409083, 22.380500676431982, 143.51671572285085, 48.12776098140255, 62.646479489432195 
174.45453362513663, 0.21505862347316224, 22.38050070467298, 142.81836173090306, 48.12701592089148, 62.646487884747465 
173.5264961201084, 0.21960387770608178, 22.380500619357427, 142.12000472865762, 48.12925107833574, 62.646462699160445 
172.59850817848485, 0.23020812295376147, 22.38050041337626, 141.42163266990437, 48.1344661643071, 62.64640393698156 
171.67060935262145, 0.24686812527174506, 22.38050007015241, 140.72323348835187, 48.14266050351244, 62.64631160827097 
170.74283902642907, 0.2695788060630286, 22.38049956366649, 140.02479508155136, 48.15383303488821, 62.646185728845516 
169.81523634092412, 0.2983332464887054, 22.38049885849721, 139.32630529480184, 48.1679823117487, 62.64602632028873 
168.88784012022873, 0.3331226934636098, 22.3804979098763, 138.62775190502788, 48.18510650198736, 62.645833409965185 
167.9606887981563, 0.3739365672199046, 22.380496663758116, 137.9291226046213, 48.20520338833094, 62.64560703103802 
167.0338203455152, 0.420762470416686, 22.3804950569035, 137.23040498523872, 48.22827036864545, 62.645347222490685 
166.107272198261, 0.47358619876986213, 22.380493016978086, 136.53158652154534, 48.254304456293156, 62.6450540291517 
165.18108118662266, 0.5323917531716634, 22.380490462664778, 135.83265455489698, 48.28330228053955, 62.644727501723494 
164.25528346532593, 0.597161353265704, 22.380487303790254, 135.1335962769508, 48.31526008700901, 62.64436769681443 
163.32991444503108, 0.6678754524390194, 22.380483441465362, 134.43439871319524, 48.35017373818789, 62.64397467697443 
162.40500872509813, 0.7445127541890137, 22.38047876823924, 133.73504870639036, 48.38803871397336, 62.64354851073386 
161.48060002778675, 0.8270502298195676, 22.380473168266793, 133.03553289990845, 48.42885011226651, 62.64308927264578 
160.55672113399262, 0.9154631374170502, 22.380466517489637, 132.3358377209648, 48.47260264960766, 62.6425970433313 
159.6334038206159, 1.0097250420540145, 22.38045868382987, 131.63594936372905, 48.51929066185204, 62.64207190952811 
158.71067879965062, 1.1098078371650166, 22.380449527396728, 130.9358537723055, 48.56890810488367, 62.64151396414189 
157.78857565907742, 1.2156817670365685, 22.380438900705705, 130.23553662357278, 48.621448555364964, 62.64092330630073 
156.86712280563583, 1.3273154503505666, 22.380426648909825, 129.5349833098703, 48.67690521151987, 62.64030004141213 
155.94634740954348, 1.4446759047182072, 22.380412610042896, 128.83417892152113, 48.73527089394766, 62.63964428122285 
155.02627535122411, 1.5677285721394885, 22.38039661527423, 128.13310822917785, 48.7965380464647, 62.63895614388108 
154.10693117009797, 1.6964373453215829, 22.380378489174703, 127.43175566598022, 48.86069873697133, 62.63823575400101 
153.18833801548092, 1.8307645947877333, 22.38035804999358, 126.73010530951096, 48.92774465834057, 62.63748324272972 
152.2705175996314, 1.9706711967072574, 22.380335109945946, 126.02814086353591, 48.99766712932561, 62.636698747816055 
151.35349015297658, 2.116116561376038, 22.380309475510224, 125.3258456395155, 49.07045709548243, 62.63588241368139 
150.43727438154204, 2.267058662276127, 22.38028094773543, 124.62320253787202, 49.14610513010419, 62.63503439149229 
149.5218874266019, 2.4234540656427854, 22.38024932255775, 123.9201940289983, 49.224601435163486, 62.634154839234554 
148.60734482655891, 2.585257960466636, 22.380214391126092, 123.2168021339913, 49.305935842258656, 62.63324392178897 
147.69366048105786, 2.7524241888589334, 22.38017594013599, 122.51300840509494, 49.39009781356004, 62.632301811007984 
146.7808466173279, 2.9249052767077925, 22.38013375217167, 121.80879390583469, 49.47707644275187, 62.63132868579371 
145.86891375874313, 3.1026524645539584, 22.380087606055625, 121.10413919082593, 49.566860455965575, 62.63032473217676 
144.95787069558546, 3.285615738615018, 22.380037277205364, 120.3990242852381, 49.65943821269964, 62.62929014339568 
144.04772445798577, 3.47374386188797, 22.379982537996717, 119.69342866389445, 49.75479770672156, 62.628225119976975 
143.13848029101598, 3.6669844052609477, 22.379923158133455, 118.98733122998826, 49.85292656694674, 62.62712986981553 
142.23014163189723, 3.8652837785661984, 22.379858905022445, 118.28071029339343, 49.953812058289294, 62.62600460825494 
141.32271008928532, 4.068587261507612, 22.379789544154097, 117.57354354854819, 50.05744108247946, 62.62484955816798 
140.41618542459037, 4.276839034397816, 22.37971483948742, 116.86580805188889, 50.163800178842116, 62.623664950036655 
139.5105655352816, 4.489982208641226, 22.379634553839292, 116.15748019880985, 50.27287552503075, 62.622451022031875 
138.60584644012602, 4.707958856901567, 22.37954844927737, 115.44853570012425, 50.38465293771091, 62.62120802009229 
137.70202226630485, 4.930710042893918, 22.379456287516174, 114.73894955800071, 50.499117873187245, 62.61993619800241 
136.79908523834953, 5.158175850743596, 22.37935783031576, 114.02869604134764, 50.616255427967566, 62.61863581746937 
135.89702566883474, 5.3902954138563, 22.379252839882458, 113.31774866061745, 50.73605033925762, 62.61730714819869 
134.99583195076534, 5.627006943245792, 22.37914107927124, 112.60608014200145, 50.8584869853799, 62.615950467968204 
134.09549055159036, 5.868247755268154, 22.379022312789047, 111.89366240098383, 50.98354938610917, 62.61456606270038 
133.19598600877734, 6.113954298713432, 22.37889630639872, 111.18046651522367, 51.11122120291806, 62.61315422653277 
132.2973009268764, 6.364062181208331, 22.37876282812272, 110.46646269673043, 51.24148573912467, 62.61171526188607 
131.3994159760064, 6.61850619488543, 22.378621648446504, 109.75162026329895, 51.37432593993493, 62.610249479529934 
130.50230989169077, 6.877220341277528, 22.378472540720598, 109.03590760916676, 51.509724392371574, 62.60875719864626 
129.60595947597392, 7.140137855397327, 22.37831528156119, 108.31929217485629, 51.647663325081346, 62.60723874688947 
128.71033959974747, 7.407191228965872, 22.378149651248446, 107.60174041616209, 51.78812460801221, 62.60569446044396 
127.81542320621654, 7.678312232754885, 22.377975434122252, 106.88321777224172, 51.93108975195127, 62.60412468407825 
126.92118131543765, 7.953431938011107, 22.377792418974643, 106.16368863276759, 52.07653990791456, 62.602529771195584 
126.02758302986018, 8.232480736932878, 22.377600399438574, 105.44311630409435, 52.22445586637916, 62.60091008388126 
125.134595540806, 8.515388362171382, 22.377399174372396, 104.72146297439573, 52.374818056347515, 62.59926599294563 
124.24218413582233, 8.802083905331854, 22.37718854823964, 103.99868967772143, 52.52760654423408, 62.59759787796338 
123.35031220684654, 9.09249583445161, 22.3769683314835, 103.2747562569238, 52.68280103256329, 62.595906127308666 
122.45894125912248, 9.386552010434793, 22.37673834089554, 102.54962132540098, 52.840380858468215, 62.5941911381854 
121.56803092081212, 9.684179702425144, 22.376498399978235, 101.82324222760195, 53.0003249919781, 62.592453316653355 
120.67753895324749, 9.985305602101025, 22.376248339300712, 101.09557499823542, 53.16261203408311, 62.590693077649355 
119.78742126177308, 10.289855836878298, 22.37598799684732, 100.36657432012359, 53.32722021456375, 62.58891084500312 
118.89763190713018, 10.59775598200938, 22.375717218358556, 99.63619348063787, 53.49412738957212, 62.58710705144864 
118.0081231173402, 10.908931071568285, 22.375435857663827, 98.90438432665259, 53.663311038951626, 62.58528213862946 
117.11884530004603, 11.22330560831356, 22.375143777005654, 98.17109721794886, 53.83474826328116, 62.58343655709914 
116.22974705527628, 11.540803572423215, 22.374840847354918, 97.43628097899884, 54.008415780629036, 62.58157076631539 
115.3407751886, 11.861348429096939, 22.374526948716596, 96.69988284905777, 54.18428992300175, 62.579685234629046 
114.45187472464505, 12.184863135023354, 22.374201970425755, 95.96184843048802, 54.3623466324715, 62.57778043926648 
113.56298892095703, 12.511270143711272, 22.373865811433213, 95.22212163523677, 54.5425614569661, 62.575856866306204 
112.6740592821812, 12.840491409686008, 22.373518380580617, 94.48064462938571, 54.72490954570379, 62.573915010649166 
111.7850255745545, 13.17244839155303, 22.37315959686452, 93.73735777568841, 54.909365644255224, 62.571955375982625 
110.8958258406994, 13.507062053933302, 22.372789389689057, 92.9921995740075, 55.09590408921349, 62.56997847473733 
110.00639641471804, 13.844252868275795, 22.372407699106894, 92.24510659956073, 55.28449880245254, 62.56798482803835 
109.11667193758892, 14.18394081255447, 22.372014476048218, 91.49601343888219, 55.475123284953476, 62.56597496564892 
108.22658537287536, 14.52604536985854, 22.371609682537205, 90.74485262340066, 55.66775061017701, 62.563949425907346 
107.3360680227602, 14.870485525886062, 22.37119329189595, 89.99155456053504, 55.862353416959486, 62.5619087556572 
106.44504954442705, 15.217179765352833, 22.370765288935303, 89.23604746220242, 56.05890390190886, 62.559853510170164 
105.55345796681532, 15.566046067329493, 22.37032567013257, 88.47825727063154, 56.257373811275734, 62.55778425306185 
104.66121970778154, 15.91700189952185, 22.369874443795656, 87.7181075813712, 56.457734432273476, 62.55570155620025 
