# MEX_intpoint_lon [deg], MEX_intpoint_lat [deg], MEX_intpoint_angle [deg], TGO_intpoint_lon [deg], TGO_intpoint_lat [deg], TGO_intpoint_angle [deg] 
-104.83379313296824, 20.624410138895456, 22.83970295259956, 179.5509401425955, 58.7700701688646, 62.53667224283011 
-105.72622970891847, 20.23002733213869, 22.840351777478258, 178.7725648475817, 58.538808006381494, 62.538985339228354 
-106.61695635200157, 19.836793938765, 22.840988470034027, 177.99757380437998, 58.30914606898191, 62.54129219011296 
-107.50607527222027, 19.44480228899463, 22.841612850852016, 177.22585363232167, 58.081119309358925, 62.543592097447956 
-108.39368702569588, 19.05414402802375, 22.84222475520835, 176.45729472497848, 57.854762082568705, 62.54588437038725 
-109.27989049555964, 18.664910138941195, 22.842824033089563, 175.69179111244117, 57.63010816399656, 62.5481683254682 
-110.16478287396721, 18.277190964636127, 22.843410549194374, 174.92924032918654, 57.407190766271015, 62.55044328679672 
-111.04845964509126, 17.891076228664634, 22.843984182917723, 174.16954328731072, 57.18604255517885, 62.55270858622424 
-111.93101456895972, 17.506655055045083, 22.84454482831721, 173.41260415490996, 56.96669566463168, 62.554963563515855 
-112.81253966601679, 17.124015986954685, 22.84509239406201, 172.65833023939928, 56.74918171073167, 62.55720756651032 
-113.69312520229494, 16.743247004300507, 22.845626803364382, 171.90663187556237, 56.53353180498158, 62.55943995127169 
-114.57285967509542, 16.364435540141013, 22.846147993893872, 171.15742231813536, 56.31977656668191, 62.5616600822322 
-115.45182979908527, 15.987668495935024, 22.84665591767437, 170.4106176387317, 56.10794613455598, 62.563867332327064 
-116.33012049272726, 15.613032255596655, 22.847150540964307, 169.6661366269229, 55.89807017764092, 62.56606108312089 
-117.20781486496888, 15.240612698336646, 22.84763184411995, 168.923900695296, 55.69017790548168, 62.56824072492574 
-118.08499420212523, 14.870495210271109, 22.848099821442233, 168.18383378831527, 55.48429807766211, 62.57040565691079 
-118.96173795489831, 14.502764694780916, 22.84855448100723, 167.44586229482252, 55.280459012706366, 62.57255528720414 
-119.83812372548492, 14.137505581605303, 22.848995844480612, 166.70991496401524, 55.07868859638147, 62.574689032986136 
-120.71422725473143, 13.774801834655499, 22.849423946916247, 165.97592282475003, 54.87901428943097, 62.57680632057492 
-121.59012240930349, 13.414736958534434, 22.849838836539288, 165.24381910802316, 54.68146313476749, 62.57890658550386 
-122.46588116884388, 13.05739400375073, 22.850240574514146, 164.51353917248676, 54.48606176415122, 62.58098927259125 
-123.34157361310157, 12.70285557061571, 22.850629234697514, 163.78502043286477, 54.29283640437946, 62.58305383600208 
-124.21726790901951, 12.351203811813933, 22.85100490337689, 163.05820229113834, 54.10181288301164, 62.585099739302386 
-125.09303029777747, 12.00252043363859, 22.851367678994915, 162.33302607037533, 53.913016633652774, 62.587126455505896 
-125.96892508179216, 11.656886695884982, 22.851717671860033, 161.60943495108495, 53.72647270081714, 62.58913346711333 
-126.84501461168277, 11.31438341039605, 22.85205500384355, 160.88737390998196, 53.54220574439341, 62.59112026614454 
-127.72135927321763, 10.97509093825582, 22.852379808063983, 160.166789661051, 53.36024004373063, 62.593086354163404 
-128.59801747426226, 10.639089185627888, 22.85269222855863, 159.44763059880611, 53.18059950136474, 62.595031242295796 
-129.47504563175633, 10.306457598237555, 22.85299241994317, 158.72984674364417, 53.00330764640317, 62.596954451240855 
-130.35249815875164, 9.977275154498077, 22.853280547059587, 158.01338968919646, 52.828387637585294, 62.59885551127544 
-131.2304274515499, 9.651620357282818, 22.8535567846129, 157.29821255158586, 52.655862266034966, 62.600733962252214 
-132.10888387698256, 9.329571224347236, 22.853821316797205, 156.5842699205017, 52.485753957721364, 62.602589353591455 
-132.98791575988275, 9.011205277406084, 22.854074336911584, 155.87151781200788, 52.31808477564307, 62.604421244266675 
-133.86756937080156, 8.696599529873533, 22.854316046966233, 155.1599136230033, 52.152876421749966, 62.606229202784455 
-134.7478889140271, 8.385830473275567, 22.854546657279528, 154.44941608725824, 51.99015023861704, 62.60801280715829 
-135.6289165159696, 8.078974062346367, 22.854766386066437, 153.73998523295208, 51.82992721088332, 62.60977164487721 
-136.51069221397844, 7.7761056988223585, 22.854975459018842, 153.03158234164235, 51.672227966468704, 62.61150531286897 
-137.3932539456627, 7.477300213950241, 22.85517410887837, 152.32416990859758, 51.51707277758142, 62.61321341745787 
-138.2766375387893, 7.182631849727187, 22.85536257500223, 151.61771160442981, 51.36448156152743, 62.614895574318076 
-139.16087670183722, 6.892174238894182, 22.855541102922697, 150.91217223796434, 51.21447388133352, 62.61655140842202 
-140.0460030152887, 6.606000383706094, 22.85570994390081, 150.20751772028908, 51.067068946195064, 62.61818055398434 
-140.93204592374164, 6.324182633504179, 22.85586935447479, 149.50371502992607, 50.922285611758795, 62.61978265440157 
-141.81903272892978, 6.046792661120062, 22.856019596003925, 148.8007321790722, 50.780142380250886, 62.62135736218787 
-142.7069885837395, 5.77390143814244, 22.856160934208358, 148.09853818085745, 50.64065740046035, 62.622904338907034 
-143.59593648731422, 5.505579209080867, 22.856293638705516, 147.39710301757106, 50.503848467586835, 62.624423255100645 
-144.48589728133814, 5.241895464463729, 22.856417982543718, 146.69639760980985, 50.36973302296227, 62.62591379021318 
-145.3768896475929, 4.982918912910455, 22.856534241733605, 145.99639378650252, 50.23832815365507, 62.62737563251409 
-146.26893010688124, 4.728717452221003, 22.85664269477794, 145.2970642557682, 50.10965059196536, 62.62880847901661 
-147.16203301941192, 4.479358139528412, 22.856743622200565, 144.59838257656705, 49.98371671481965, 62.63021203539444 
-148.05621058673944, 4.234907160563607, 22.856837306074933, 143.90032313110532, 49.860542543072654, 62.63158601589572 
-148.95147285535344, 3.9954297980840523, 22.856924029552925, 143.20286109795583, 49.740143740724235, 62.63293014325499 
-149.84782772200836, 3.7609903995214404, 22.85700407639465, 142.50597242585937, 49.62253561405868, 62.6342441486033 
-150.74528094088618, 3.531652343905978, 22.857077730499686, 141.8096338081721, 49.507733110713616, 62.6355277713765 
-151.64383613267958, 3.3074780081281765, 22.857145275440523, 141.1138226579267, 49.39575081868573, 62.63678075922233 
-152.54349479568256, 3.0885287326015405, 22.8572069939987, 140.4185170834761, 49.28660296527956, 62.63800286790611 
-153.44425631897212, 2.874864786392619, 22.8572631677044, 139.72369586468938, 49.18030341600644, 62.639193861215624 
-154.34611799775973, 2.666545331887376, 22.8573140763799, 139.0293384296723, 49.076865673439514, 62.64035351086522 
-155.2490750509895, 2.4636283890654243, 22.857359997687713, 138.33542483198448, 48.97630287603116, 62.64148159639957 
-156.1531206412537, 2.266170799456195, 22.85740120668383, 137.64193572832752, 48.87862779689862, 62.64257790509698 
-157.05824589709155, 2.074228189853475, 22.857437975376723, 136.94885235667914, 48.7838528425836, 62.643642231872725 
-157.9644399377325, 1.887854935866657, 22.857470572292733, 136.2561565148496, 48.691990051791414, 62.644674379182874 
-158.87168990033803, 1.707104125389353, 22.857499262048343, 135.56383053943776, 48.60305109411497, 62.64567415692809 
-159.77998096979078, 1.5320275220675563, 22.85752430492991, 134.87185728516477, 48.517047268748755, 62.64664138235847 
-160.68929641107192, 1.362675528851243, 22.857545956481513, 134.180220104565, 48.43398950319782, 62.64757587997908 
-161.59961760426015, 1.1990971517146676, 22.857564467101255, 133.48890282801423, 48.35388835198665, 62.64847748145651 
-162.51092408217949, 1.0413399636316645, 22.857580081646834, 132.79788974407603, 48.276753995372374, 62.649346025526945 
-163.42319357071318, 0.8894500688932058, 22.857593039050588, 132.10716558014818, 48.202596238067045, 62.6501813579054 
-164.33640203179365, 0.743472067854928, 22.85760357194483, 131.41671548339176, 48.131424507973, 62.650983331197025 
-165.25052370906906, 0.6034490222028793, 22.857611906297738, 130.72652500192663, 48.06324785493572, 62.651751804810026 
-166.16553117623835, 0.4694224208255744, 22.857618261060342, 130.0365800662768, 47.99807494951783, 62.652486644870585 
-167.08139538803763, 0.3414321463801695, 22.857622847825237, 129.34686697105073, 47.93591408179845, 62.65318772414045 
-167.99808573385073, 0.21951644264010808, 22.85762587049721, 128.65737235684202, 47.87677316020101, 62.653854921936464 
-168.91557009390763, 0.10371188271059603, 22.857627524976394, 127.96808319233656, 47.82065971035359, 62.654488124052946 
-169.83381489802466, -0.00594666180304742, 22.857627998854316, 127.27898675661208, 47.76758087398456, 62.655087222687015 
-170.7527851868312, -0.10942605059047275, 22.85762747112328, 126.59007062161815, 47.717543407857, 62.655652116366284 
-171.67244467541695, -0.20669490331326915, 22.85762611189941, 125.90132263482342, 47.67055368274479, 62.65618270988028 
-172.59275581932536, -0.29772362708426636, 22.857624082159752, 125.21273090201855, 47.62661768245312, 62.65667891421448 
-173.51367988280924, -0.38248444267235227, 22.857621533493784, 124.52428377026328, 47.58574100288621, 62.65714064648831 
-174.43517700925423, -0.46095140935866646, 22.857618607869714, 123.83596981096669, 47.5479288511646, 62.65756782989598 
-175.35720629366878, -0.5331004483734764, 22.857615437415745, 123.14777780308945, 47.51318604479446, 62.65796039365146 
-176.27972585712897, -0.598909364846194, 22.85761214421673, 122.45969671645862, 47.48151701089103, 62.658318272936896 
-177.20269292305912, -0.6583578682051733, 22.857608840126453, 121.77171569518399, 47.45292578545819, 62.65864140885478 
-178.1260638952209, -0.7114275909675755, 22.85760562659573, 121.08382404116712, 47.42741601272602, 62.65892974838441 
-179.04979443727672, -0.7581021058643757, 22.85760259451664, 120.39601119769314, 47.40499094454815, 62.65918324434186 
-179.9738395537854, -0.7983669412498011, 22.857599824082982, 119.70826673309617, 47.385653439860135, 62.65940185534445 
179.10184632751674, -0.832209594749505, 22.857597384667326, 119.02058032448973, 47.36940596420051, 62.659585545779095 
178.17730927230357, -0.8596195451068257, 22.85759533471462, 118.33294174155296, 47.356250589295584, 62.65973428577513 
177.25259575527377, -0.880588262191632, 22.857593721652616, 117.64534083036429, 47.34618899270895, 62.65984805118111 
176.3277525749547, -0.8951092151417257, 22.8575925818192, 116.9577674972741, 47.33922245755674, 62.65992682354632 
175.402826767863, -0.9031778786122051, 22.857591940406767, 116.27021169280803, 47.335351872289074, 62.65997059010623 
174.4778655221901, -0.9047917371140289, 22.85759181142359, 115.58266339559252, 47.334577730538605, 62.65997934377273 
173.55291609118524, -0.8999502874285552, 22.857592197672382, 114.89511259629465, 47.33690013103607, 62.6599530831284 
172.62802570640815, -0.88865503909085, 22.857593090746047, 114.20754928156819, 47.34231877759344, 62.65989181242564 
171.70324149102512, -0.8709095129401856, 22.857594471040503, 113.51996341799737, 47.3508329791546, 62.65979554158979 
170.77861037332175, -0.846719237742235, 22.857596307784718, 112.8323449360307, 47.36244164991329, 62.659664286226935 
169.85417900060477, -0.8160917448930972, 22.857598559087847, 112.14468371389638, 47.37714330949819, 62.65949806763608 
168.92999365366305, -0.7790365612211922, 22.857601172003395, 111.45696956149139, 47.39493608322461, 62.65929691282572 
168.00610016195657, -0.7355651999087294, 22.857604082610358, 110.76919220423561, 47.41581770241226, 62.65906085453458 
167.08254381969724, -0.6856911495600745, 22.857607216111205, 110.08134126688283, 47.43978550476819, 62.6587899312568 
166.15936930298275, -0.6294298614497438, 22.857610486946598, 109.39340625728029, 47.46683643483402, 62.658484187271526 
165.23662058813946, -0.5667987349881827, 22.857613798926614, 108.7053765500675, 47.49696704449632, 62.65814367267635 
164.31434087142458, -0.49781710144856334, 22.85761704537849, 108.01724137030614, 47.53017349355901, 62.65776844342515 
163.3925724902329, -0.4225062060027071, 22.857620109310417, 107.32898977703158, 47.56645155037609, 62.65735856136989 
162.4713568459453, -0.34088918811906666, 22.857622863591413, 106.64061064671674, 47.60579659254322, 62.65691409430633 
161.55073432855087, -0.25299106038015845, 22.857625171146875, 105.95209265663897, 47.64820360764657, 62.65643511602363 
160.63074424316503, -0.15883868578090174, 22.8576268851697, 105.26342426813972, 47.69366719406662, 62.655921706357915 
159.7114247385594, -0.058460753573458056, 22.857627849346475, 104.5745937097673, 47.74218156183517, 62.65537395124912 
158.79281273780998, 0.0481122462723634, 22.857627898098634, 103.8855889602917, 47.79374053354314, 62.654791942801744 
157.87494387116172, 0.16084804992057924, 22.857626856838223, 103.19639773158111, 47.84833754529679, 62.65417577934878 
156.95785241119796, 0.27971264775696536, 22.857624542237843, 102.50700745132849, 47.905965647719725, 62.653525565519075 
156.04157121039495, 0.40467031363514877, 22.857620762514497, 101.8174052456166, 47.96661750699804, 62.65284141230778 
155.12613164113063, 0.5356836352003195, 22.857615317726903, 101.12757792130945, 48.030285405965664, 62.65212343714974 
154.21156353820902, 0.6727135452078603, 22.857608000085996, 100.4375119482573, 48.09696124522673, 62.65137176399577 
153.2978951439507, 0.8157193537525103, 22.85759859427801, 99.74719344130223, 48.16663654431202, 62.650586523391695 
152.38515305589019, 0.9646587813223307, 22.857586877799953, 99.05660814207043, 48.2393024428657, 62.649767852559876 
151.47336217711262, 1.1194879925905283, 22.857572621306733, 98.365741400537, 48.314949701859234, 62.64891589548287 
150.56254566925128, 1.2801616308575554, 22.857555588969852, 97.67457815634822, 48.393568704828326, 62.64803080298963 
149.6527249081589, 1.4466328530555206, 22.857535538846808, 96.98310291988591, 48.475149459129405, 62.6471127328433 
148.74391944225633, 1.618853365226631, 22.85751222326097, 96.29129975305723, 48.55968159721127, 62.64616184983109 
147.8361469535536, 1.796773458387715, 22.85748538919135, 95.5991522497934, 48.64715437789795, 62.64517832585554 
146.9294232213292, 1.9803420446932565, 22.857454778671727, 94.9066435162394, 48.737556687678165, 62.64416234002738 
146.02376208844547, 2.1695066938102228, 22.857420129198648, 94.21375615061562, 48.83087704199707, 62.643114078759346 
145.1191754302704, 2.36421366941871, 22.857381174147676, 93.52047222273306, 48.9271035865453, 62.64203373586111 
144.21567312616742, 2.564407965753959, 22.85733764319751, 92.82677325314067, 49.02622409854065, 62.640921512634975 
143.3132630335097, 2.7700333441066034, 22.857289262761164, 92.13264019188439, 49.128225987997226, 62.63977761797205 
142.41195096416592, 2.981032369199727, 22.857235756423904, 91.43805339685538, 49.23309629897665, 62.638602268448764 
141.51174066340124, 3.197346445363182, 22.857176845387144, 90.74299261170418, 49.340821710816215, 62.63739568842363 
140.61263379112907, 3.418915852427801, 22.85711224891787, 90.04743694329646, 49.45138853932809, 62.63615811013351 
139.71462990544543, 3.6456797812641737, 22.8570416848029, 89.35136483868536, 49.5647827379638, 62.634889773789865 
138.81772644837207, 3.8775763688932527, 22.856964869807435, 88.65475406157297, 49.680989898938094, 62.633590927674376 
137.92191873373054, 4.114542733098451, 22.856881520137268, 87.95758166823396, 49.799995254305806, 62.63226182823352 
137.02719993706592, 4.356515006471482, 22.856791351904103, 87.25982398287182, 49.92178367698547, 62.63090274017234 
136.13356108753487, 4.603428369827123, 22.856694081593236, 86.561456572377, 50.04633968172289, 62.62951393654662 
135.24099106167057, 4.855217084924638, 22.856589426533134, 85.86245422045559, 50.17364742598786, 62.628095698853954 
134.3494765789348, 5.111814526436639, 22.856477105366245, 85.16279090109461, 50.303690710797035, 62.62664831712247 
133.45900219896495, 5.373153213109016, 22.85635683852033, 84.4624397513294, 50.43645298145541, 62.62517208999816 
132.56955032042333, 5.639164838058614, 22.85622834867984, 83.76137304327601, 50.571917328209196, 62.623667324829405 
131.68110118135488, 5.909780298158063, 22.856091361256617, 83.05956215539115, 50.710066486801686, 62.62213433774929 
130.79363286095858, 6.184929722460582, 22.855945604859336, 82.35697754291851, 50.850882838924804, 62.620573453755156 
129.9071212826792, 6.464542499619979, 22.855790811761075, 81.6535887074808, 50.99434841255711, 62.61898500678522 
129.0215402185245, 6.748547304264683, 22.85562671836437, 80.94936416577241, 51.14044488218021, 62.61736933979172 
128.13686129451645, 7.036872122286894, 22.85545306566318, 80.24427141730806, 51.28915356886441, 62.61572680481106 
127.25305399718364, 7.329444275011368, 22.855269599701124, 79.5382769111782, 51.44045544021411, 62.61405776302986 
126.37008568100623, 7.626190442210964, 22.855076072025426, 78.8313460117619, 51.59433111016366, 62.61236258484726 
125.48792157672467, 7.927036683938714, 22.854872240135894, 78.12344296334405, 51.750760838613346, 62.6106416499333 
124.60652480042732, 8.231908461149292, 22.854657867928438, 77.41453085358208, 51.909724530895346, 62.608895347282534 
123.72585636333444, 8.540730655084904, 22.854432726132448, 76.7045715757648, 52.07120173705889, 62.6071240752634 
122.84587518219801, 8.853427585403745, 22.854196592741566, 75.99352578980273, 52.23517165096325, 62.605328241662576 
121.96653809024244, 9.169923027031029, 22.853949253437147, 75.2813528818874, 52.40161310916714, 62.60350826372452 
121.08779984857179, 9.490140225715695, 22.85369050200398, 74.56801092275337, 52.57050458960232, 62.60166456818561 
120.2096131579761, 9.814001912277543, 22.853420140737615, 73.85345662447426, 52.74182421001901, 62.599797591302895 
119.33192867107098, 10.141430315532359, 22.853137980842835, 73.13764529572056, 52.9155497261896, 62.5979077788773 
118.45469500471063, 10.472347173884291, 22.8528438428227, 72.42053079540375, 53.09165852985756, 62.59599558627096 
117.57785875261838, 10.806673745577031, 22.852537556857598, 71.70206548462816, 53.27012764641673, 62.59406147841844 
116.70136449818345, 11.14433081759741, 22.852218963173996, 70.98220017686774, 53.45093373230667, 62.59210592983193 
115.8251548273784, 11.485238713226458, 22.851887912402105, 70.26088408628169, 53.63405307210813, 62.5901294245999 
114.94917034175587, 11.829317298235427, 22.851544265922215, 69.53806477407875, 53.8194615753226, 62.5881324563793 
114.07334967149002, 12.176485985725362, 22.85118789619914, 68.81368809283603, 54.007134772819086, 62.586115528380915 
113.19762948843194, 12.526663739610946, 22.850818687104322, 68.08769812867365, 54.19704781293013, 62.584079153348036 
112.32194451915602, 12.87976907675045, 22.850436534225224, 67.36003714118266, 54.389175457178645, 62.58202385352793 
111.4462275579784, 13.235720067725719, 22.850041345161422, 66.63064550099836, 54.58349207561611, 62.57995016063601 
110.57040947993634, 13.594434336276876, 22.849633039807255, 65.89946162490693, 54.779971641751665, 62.57785861581315 
109.69441925372271, 13.95582905739837, 22.849211550620396, 65.16642190836843, 54.97858772705068, 62.575749769574934 
108.81818395457655, 14.31982095410412, 22.848776822876093, 64.43146065533318, 55.17931349498044, 62.573624181753715 
107.9416287771379, 14.686326292870653, 22.848328814906782, 63.694510005224615, 55.38212169457917, 62.571482421433 
107.06467704828104, 15.05526087776889, 22.84786749832655, 62.9554998569549, 55.586984653523835, 62.56932506687363 
106.18725023994894, 15.426540043295788, 22.847392858240326, 62.21435778983507, 55.79387427067045, 62.567152705432655 
105.30926798201695, 15.80007864591905, 22.846904893437404, 61.471008981234604, 56.00276200803956, 62.56496593347358 
