# MEX_intpoint_lon [deg], MEX_intpoint_lat [deg], MEX_intpoint_angle [deg], TGO_intpoint_lon [deg], TGO_intpoint_lat [deg], TGO_intpoint_angle [deg] 
-104.27926505531583, 20.499581421354122, 22.500676621942628, -160.0984580987429, 59.15380121533868, 62.528672790676744 
-105.18225311514101, 20.12251955262261, 22.501283981826766, -160.89810284538297, 58.93376904143763, 62.53085690621087 
-106.08353955793766, 19.746508148959045, 22.501880408274953, -161.6941791835866, 58.71521041811502, 62.533035455128996 
-106.9832193909498, 19.371637821888775, 22.502465732688133, -162.48680060265835, 58.49816085787233, 62.53520777765915 
-107.88138619363353, 18.99799851149361, 22.50303979970442, -163.27607702454443, 58.28265524310432, 62.537373220416086 
-108.77813209203022, 18.62567950514357, 22.503602467218656, -164.0621149241794, 58.0687278444747, 62.53953113658572 
-109.6735477344975, 18.25476945541843, 22.504153606386012, -164.84501744559137, 57.85641233829303, 62.54168088610185 
-110.56772226866481, 17.885356397183198, 22.50469310160964, -165.62488451388754, 57.64574182293968, 62.543821835815656 
-111.4607433194901, 17.517527763783566, 22.505220850512394, -166.40181294324606, 57.43674883438292, 62.54595335965756 
-112.35269696830264, 17.15137040232998, 22.505736763892823, -167.1758965410386, 57.229465360830865, 62.54807483879166 
-113.24366773272665, 16.78697058804046, 22.506240765665435, -167.9472262082096, 57.023922856558094, 62.55018566176274 
-114.13373854738799, 16.424414037614664, 22.50673279278536, -168.71589003603603, 56.820152254945995, 62.55228522463558 
-115.02299074531595, 16.063785921613373, 22.507212795157603, -169.4819733993926, 56.61818398077316, 62.55437293112719 
-115.91150403995897, 15.70517087581907, 22.507680735530986, -170.24555904664325, 56.418047961790975, 62.55644819273121 
-116.79935650774213, 15.348653011555383, 22.508136589377, -171.00672718628007, 56.21977363961783, 62.55851042883517 
-117.68662457110162, 14.994315924944264, 22.508580344753696, -171.7655555704272, 56.02338997998366, 62.560559066830294 
-118.57338298193834, 14.642242705081836, 22.50901200215489, -172.52211957532572, 55.82892548235527, 62.56259354221399 
-119.45970480544196, 14.292515941114786, 22.50943157434494, -173.27649227891226, 55.636408188971245, 62.564613298685224 
-120.34566140424108, 13.945217728201166, 22.509839086179152, -174.02874453560227, 55.44586569331444, 62.56661778823245 
-121.23132242284525, 13.600429672340503, 22.51023457441028, -174.77894504838457, 55.2573251480478, 62.56860647121466 
-122.11675577234821, 13.258232894059848, 22.510618087481415, -175.52716043833266, 55.070813272439366, 62.57057881643538 
-123.00202761537152, 12.918708030943563, 22.51098968530531, -176.27345531163348, 54.88635635929994, 62.57253430120964 
-123.88720235123075, 12.58193523899642, 22.51134943903069, -177.01789232423286, 54.703980281456595, 62.57447241142416 
-124.77234260131569, 12.247994192830546, 22.51169743079582, -177.76053224419263, 54.52371049778401, 62.57639264159075 
-125.65750919467996, 11.916964084668736, 22.512033753469606, -178.5014340118521, 54.34557205881433, 62.578294494893164 
-126.5427611538419, 11.588923622157834, 22.512358510380647, -179.24065479788308, 54.16958961194589, 62.580177483227374 
-127.42815568080502, 11.263951024987316, 22.512671815034594, -179.97825005932523, 53.99578740626968, 62.58204112723553 
-128.3137481433103, 10.942124020310265, 22.512973790820176, 179.28572640631543, 53.82418929703203, 62.583884956333456 
-129.1995920613396, 10.623519836964832, 22.513264570704372, 178.5512224088235, 53.654818749751044, 62.58570850873242 
-130.08573909389264, 10.30821519849659, 22.513544296917043, 177.81818731480976, 53.487698844003575, 62.58751133145448 
-130.97223902606777, 9.996286314983442, 22.513813120625443, 177.08657199894986, 53.32285227689878, 62.58929298034229 
-131.85913975647782, 9.687808873666787, 22.51407120159926, 176.35632879685443, 53.16030136625379, 62.59105302006311 
-132.74648728504056, 9.382858028394214, 22.51431870786629, 175.62741145950056, 53.000068053486224, 62.59279102410744 
-133.6343257011852, 9.081508387881197, 22.514555815359508, 174.8997751091584, 52.842173906237775, 62.594506574781946 
-134.52269717252105, 8.783834002800933, 22.51478270755582, 174.173376196748, 52.68664012074254, 62.59619926319766 
-135.41164193401985, 8.48990835171355, 22.51499957510711, 173.44817246056456, 52.53348752395308, 62.597868689252834 
-136.30119827776446, 8.19980432584805, 22.515206615463956, 172.72412288631295, 52.382736575436915, 62.59951446161105 
-137.1914025433225, 7.913594212752503, 22.51540403249259, 172.00118766839321, 52.23440736905552, 62.60113619767474 
-138.082289108805, 7.63134967883013, 22.515592036085568, 171.27932817238366, 52.0885196344374, 62.60273352355413 
-138.97389038267463, 7.35314175078099, 22.515770841766745, 170.55850689866668, 51.945092738256584, 62.604306074031875 
-139.86623679636904, 7.079040795971897, 22.515940670290927, 169.83868744714846, 51.80414568532711, 62.60585349252394 
-140.75935679780923, 6.8091165017587745, 22.51610174723892, 169.11983448302198, 51.6656971195242, 62.60737543103592 
-141.65327684586336, 6.543437853788715, 22.51625430260834, 168.40191370352798, 51.52976532454178, 62.60887155011637 
-142.5480214058389, 6.282073113311101, 22.516398570400828, 167.68489180566797, 51.39636822449635, 62.6103415188062 
-143.44361294607813, 6.0250897935298, 22.516534788206197, 166.96873645482628, 51.26552338438629, 62.61178501458485 
-144.34007193573177, 5.772554635030897, 22.51666319678402, 166.2534162542599, 51.13724801041561, 62.61320172331354 
-145.23741684378774, 5.524533580323062, 22.51678403964328, 165.5389007154162, 51.01155895019098, 62.614591339175405 
-146.13566413943164, 5.281091747530172, 22.516897562620535, 164.8251602290404, 50.88847269280022, 62.61595356461306 
-147.0348282938163, 5.0422934032782525, 22.517004013457296, 164.11216603703596, 50.76800536878051, 62.61728811026367 
-147.93492178331624, 4.808201934821749, 22.517103641377023, 163.39989020504322, 50.65017274998397, 62.61859469489188 
-148.83595509434429, 4.578879821456126, 22.517196696662396, 162.68830559570188, 50.53499024934839, 62.619873045320425 
-149.73793672980435, 4.354388605266964, 22.517283430233423, 161.97738584256584, 50.42247292058011, 62.62112289635918 
-150.6408732172542, 4.134788861267602, 22.517364093226842, 161.2671053246385, 50.31263545775649, 62.62234399073225 
-151.5447691188498, 3.9201401669803464, 22.517438936577513, 160.5574391414996, 50.20549219485441, 62.62353607900406 
-152.44962704314042, 3.7105010715182685, 22.517508210602227, 159.84836308899438, 50.1010571052116, 62.62469891950386 
-153.3554476587812, 3.505929064227118, 22.517572164586547, 159.1398536354581, 49.99934380092737, 62.62583227824929 
-154.26222971022622, 3.306480542949099, 22.51763104637522, 158.43188789844987, 49.90036553220836, 62.62693592886936 
-155.16997003546211, 3.112210781972253, 22.517685101966688, 157.7244436219698, 49.80413518666579, 62.628009652526444 
-156.07866358583823, 2.9231738997313057, 22.517734575112218, 157.01749915413632, 49.7106652885698, 62.629053237838285 
-156.98830344804395, 2.7394228263277522, 22.51777970692028, 156.31103342529994, 49.61996799806634, 62.63006648079952 
-157.8988808682809, 2.5610092709385066, 22.51782073546645, 155.6050259265715, 49.53205511036211, 62.63104918470329 
-158.81038527867, 2.387983689184247, 22.51785789540971, 154.89945668874344, 49.44693805488262, 62.632001160063055 
-159.72280432593058, 2.2203952505297937, 22.517891417615335, 154.19430626158373, 49.36462789440858, 62.63292222453473 
-160.6361239023606, 2.058291805790195, 22.517921528785042, 153.48955569348308, 49.28513532419514, 62.633812202839565 
-161.55032817914142, 1.901719854817267, 22.517948451094817, 152.78518651143608, 49.20847067107894, 62.63467092668755 
-162.4653996419847, 1.7507245144419736, 22.51797240184094, 152.08118070133915, 49.13464389257724, 62.63549823470194 
-163.3813191291311, 1.6053494867488483, 22.51799359309462, 151.3775206885868, 49.063664575983395, 62.63629397234484 
-164.2980658717039, 1.4656370277588273, 22.518012231365827, 150.67418931895065, 48.99554193746314, 62.63705799184403 
-165.21561753641274, 1.3316279165972327, 22.518028517276527, 149.97116983972438, 48.930284821155226, 62.63779015212141 
-166.13395027059607, 1.203361425223199, 22.518042645244066, 149.26844588112004, 48.86790169828049, 62.63849031872286 
-167.0530387495817, 1.0808752887968687, 22.518054803174813, 148.56600143790018, 48.808400666263005, 62.63915836375006 
-167.97285622633865, 0.9642056767596396, 22.518065172168715, 147.86382085123202, 48.75178944786647, 62.63979416579422 
-168.89337458338363, 0.853387164702123, 22.518073926234962, 147.1618887907503, 48.69807539034972, 62.64039760987172 
-169.81456438689938, 0.7484527070932031, 22.518081232019338, 146.4601902368148, 48.64726546464397, 62.64096858736235 
-170.73639494301236, 0.6494336109421436, 22.51808724854341, 145.7587104629505, 48.59936626455517, 62.64150699594954 
-171.65883435617087, 0.556359510463846, 22.51809212695606, 145.05743501845808, 48.55438400599404, 62.64201273956326 
-172.58184958955522, 0.46925834281570844, 22.518096010297622, 144.3563497111828, 48.51232452623674, 62.6424857283257 
-173.50540652744473, 0.38815632497179464, 22.51809903327692, 143.65544059043015, 48.4731932832185, 62.64292587849934 
-174.4294700394592, 0.31307793179789034, 22.518101322061575, 142.95469393001756, 48.43699535486272, 62.64333311243828 
-175.35400404658344, 0.24404587538802622, 22.5181029940818, 142.25409621145164, 48.403735438447555, 62.64370735854217 
-176.27897158887802, 0.18108108572003603, 22.51810415784792, 141.55363410721955, 48.37341785001243, 62.64404855121353 
-177.2043348947719, 0.1242026926844942, 22.51810491278198, 140.85329446418572, 48.3460465238059, 62.64435663081795 
-178.1300554518257, 0.07342800953772038, 22.518105349063507, 140.15306428708323, 48.32162501177707, 62.64463154364773 
-179.05609407884933, 0.02877251782597886, 22.51810554748973, 139.4529307220905, 48.30015648311181, 62.64487324188881 
-179.98241099925104, -0.009750146176120881, 22.518105579350472, 138.75288104048408, 48.28164372381544, 62.645081683590995 
179.09103408450926, -0.042128203474034606, 22.518105506317738, 138.05290262235798, 48.26608913634306, 62.645256832641685 
178.16428191549537, -0.06835174277388617, 22.518105380350335, 137.35298294040092, 48.25349473927865, 62.64539865874321 
177.23737360603457, -0.08841272928506029, 22.51810524361347, 136.65310954372288, 48.24386216706401, 62.645507137393565 
176.31035056076252, -0.10230501187928898, 22.5181051284136, 135.95327004172137, 48.237192669778246, 62.64558224987092 
175.3832543991155, -0.11002432858529203, 22.518105057148464, 135.25345208797975, 48.233487112968454, 62.6456239832215 
174.4561268774161, -0.11156831040299055, 22.518105042272456, 134.55364336418873, 48.232745977532325, 62.64563233025157 
173.52900981069885, -0.10693648342615747, 22.518105086277433, 133.85383156408224, 48.23496935965266, 62.645607289522566 
172.60194499442454, -0.09613026926725082, 22.51810518168884, 133.15400437737992, 48.24015697078433, 62.64554886535036 
171.6749741262316, -0.07915298378320157, 22.518105311077203, 132.4541494737276, 48.24830813769349, 62.64545706780782 
170.74813872787337, -0.056009834105918796, 22.51810544708517, 131.75425448662673, 48.25942180254914, 62.64533191273152 
169.82148006748852, -0.02670791398613712, 22.5181055524697, 131.05430699734555, 48.27349652306645, 62.64517342173162 
168.89503908235196, 0.00874380253575729, 22.51810558015968, 130.35429451880245, 48.29053047270179, 62.644981622205854 
167.96885630224918, 0.05033446911345087, 22.518105473328724, 129.6542044794134, 48.31052144089862, 62.64475654735665 
167.0429717736166, 0.09805137670977672, 22.518105165483043, 128.95402420689487, 48.33346683338354, 62.6444982362124 
166.11742498458582, 0.15187996481532123, 22.518104580564408, 128.2537409120134, 48.35936367251176, 62.644206733651714 
165.19225479106618, 0.2118038342379909, 22.518103633067856, 127.55334167227264, 48.388208597660714, 62.643882090431596 
164.26749934399575, 0.2778047614268477, 22.51810222817424, 126.8528134155294, 48.41999786567076, 62.643524363218646 
163.343196017886, 0.34986271428917226, 22.518100261897196, 126.15214290352881, 48.45472735133157, 62.64313361462412 
162.41938134077935, 0.4279558694555688, 22.518097621244525, 125.45131671534946, 48.49239254791275, 62.642709913241774 
161.49609092573442, 0.5120606309443241, 22.518094184393632, 124.75032123074881, 48.532988567736766, 62.64225333368917 
160.57335940394543, 0.6021516501723584, 22.518089820880917, 124.04914261339883, 48.57651014279278, 62.64176395665209 
159.65122035959763, 0.6982018472568012, 22.51808439180476, 123.34776679400167, 48.62295162538894, 62.64124186893191 
158.72970626655214, 0.8001824335481772, 22.51807775004187, 122.64617945327475, 48.67230698884143, 62.64068716349595 
157.80884842694758, 0.9080629353329583, 22.518069740476733, 121.94436600479443, 48.72456982819751, 62.640099939530465 
156.88867691179672, 1.0218112186409212, 22.518060200243852, 121.24231157768716, 48.77973336099057, 62.6394803024966 
155.96922050365097, 1.1413935150900762, 22.518048958982373, 120.5400009991563, 48.83779042802428, 62.63882836418867 
155.05050664139512, 1.2667744487000343, 22.518035839102925, 119.8374187768325, 48.89873349418305, 62.63814424279493 
154.1325613672291, 1.3979170636025655, 22.518020656066085, 119.13454908093554, 48.962554649266195, 62.63742806296084 
153.21540927588381, 1.5347828525767193, 22.518003218672387, 118.43137572623452, 49.029245608842324, 62.63667995585417 
152.29907346611085, 1.6773317863345327, 22.51798332936323, 117.72788215379266, 49.09879771512091, 62.63590005923238 
151.38357549447835, 1.8255223434821732, 22.51796078453242, 117.02405141248347, 49.17120193783777, 62.63508851751183 
150.46893533149563, 1.9793115410807989, 22.517935374847927, 116.31986614026317, 49.24644887515057, 62.63424548183848 
149.55517132008353, 2.138654965730673, 22.5179068855834, 115.6153085451846, 49.32452875454087, 62.633371110160375 
148.64230013639823, 2.303506805102177, 22.517875096958985, 114.91036038613703, 49.40543143371885, 62.632465567301594 
147.73033675300925, 2.4738198798369115, 22.517839784491056, 114.20500295329525, 49.48914640152637, 62.63152902503698 
146.8192944044253, 2.6495456757427083, 22.51780071935036, 113.49921704826143, 49.57566277883456, 62.63056166216838 
145.90918455495424, 2.830634376206742, 22.517757668728077, 112.79298296388149, 49.66496931943117, 62.62956366460133 
145.00001686887697, 3.017034894751548, 22.517710396209356, 112.08628046371815, 49.7570544108934, 62.62853522542284 
144.09179918290832, 3.2086949076598015, 22.51765866215379, 111.37908876116101, 49.85190607544127, 62.62747654497922 
143.18453748091224, 3.4055608865947775, 22.517602224082413, 110.67138649815399, 49.94951197076671, 62.626387830954464 
142.27823587083248, 3.607578131144802, 22.517540837070563, 109.96315172351889, 50.04985939083338, 62.625269298448714 
141.37289656379522, 3.8146908012213294, 22.517474254146244, 109.25436187085383, 50.152935266641684, 62.624121170056554 
140.4685198553336, 4.026841949242186, 22.517402226693342, 108.54499373598344, 50.258726166953736, 62.622943675944924 
139.5651041086819, 4.243973552033081, 22.51732450485924, 107.83502345393764, 50.36721829897253, 62.62173705393081 
138.6626457400802, 4.466026542382646, 22.517240837966273, 107.12442647543358, 50.47839750896949, 62.620501549557886 
137.76113920602864, 4.692940840188134, 22.517150974926448, 106.41317754283624, 50.592249282854226, 62.61923741617251 
136.86057699242656, 4.924655383131186, 22.51705466465894, 105.70125066556973, 50.70875874668042, 62.61794491499851 
135.9609496055273, 5.1611081568254535, 22.51695165650974, 104.988619094952, 50.82791066708118, 62.616624315210636 
135.0622455646398, 5.402236224379881, 22.51684170067295, 104.27525529842379, 50.94968945162726, 62.61527589400638 
134.16445139650298, 5.647975755324295, 22.516724548613222, 103.5611309331411, 51.074079149101095, 62.613899936676326 
133.26755163125998, 5.8982620538459605, 22.51659995348867, 102.84621681890016, 51.201063449679644, 62.6124967366723 
132.3715287999552, 6.15302958628884, 22.516467670573725, 102.13048291036085, 51.33062568501839, 62.61106659567346 
131.47636343347946, 6.412212007869125, 22.516327457681463, 101.41389826853552, 51.46274882822903, 62.609609823650004 
130.58203406288456, 6.675742188563969, 22.51617907558475, 100.69643103150591, 51.597415493742744, 62.60812673892432 
129.6885172209919, 6.943552238132141, 22.51602228843571, 99.97804838433203, 51.73460793705082, 62.606617668229305 
128.79578744521743, 7.215573530228591, 22.515856864182897, 99.25871652811306, 51.87430805431427, 62.605082946763694 
127.90381728153706, 7.491736725576914, 22.515682574985732, 98.53840064816026, 52.01649738183342, 62.60352291824426 
127.01257728951805, 7.7719717941666, 22.515499197625502, 97.81706488123945, 52.161157095368324, 62.60193793495467 
126.12203604834176, 8.05620803644438, 22.51530651391254, 97.09467228183857, 52.30826800930069, 62.6003283577904 
125.23216016374683, 8.344374103471282, 22.515104311088916, 96.3711847874153, 52.45781057562735, 62.59869455630036 
124.34291427582149, 8.636398016019795, 22.514892382226193, 95.6465631825758, 52.609764882775, 62.597036908724 
123.45426106757863, 8.932207182587563, 22.51467052661769, 94.9207670621358, 52.76411065422593, 62.59535580202482 
122.5661612742472, 9.231728416306641, 22.51443855016471, 94.19375479301146, 52.92082724694327, 62.593651631918796 
121.6785736932185, 9.53488795072949, 22.51419626575626, 93.46548347488668, 53.07989364958483, 62.59192480289888 
120.79145519458775, 9.841611454475185, 22.513943493641747, 92.73590889959993, 53.241288480493324, 62.59017572825436 
119.90476073223505, 10.151824044721403, 22.513680061796148, 92.00498550919326, 53.404989985450776, 62.58840483008551 
119.01844335539388, 10.465450299529985, 22.513405806277127, 91.27266635256161, 53.57097603518425, 62.58661253931292 
118.13245422065805, 10.782414268995764, 22.513120571573754, 90.5389030406402, 53.73922412260955, 62.5847992956818 
117.24674260438378, 11.10263948521038, 22.51282421094617, 89.80364570006384, 53.90971135979889, 62.58296554776063 
116.36125591544558, 11.426048971034874, 22.512516586755897, 89.06684292523013, 54.08241447465822, 62.58111175293432 
115.47593970831156, 11.752565247676342, 22.51219757078632, 88.32844172869585, 54.2573098072989, 62.579238377391654 
114.59073769640611, 12.082110341066182, 22.511867044552798, 87.58838748983264, 54.43437330608809, 62.5773458961067 
113.70559176573504, 12.414605787038736, 22.511524899602172, 86.84662390166632, 54.613580523361264, 62.57543479281427 
112.82044198875091, 12.749972635311305, 22.511171037801066, 86.10309291581996, 54.79490661077998, 62.5735055599791 
111.93522663844388, 13.088131452267568, 22.510805371612786, 85.35773468547956, 54.97832631431652, 62.57155869875886 
111.04988220264686, 13.42900232254865, 22.51042782436224, 84.61048750629661, 55.16381396884712, 62.56959471896053 
110.16434339855057, 13.772504849457068, 22.51003833048866, 83.86128775514018, 55.35134349233388, 62.56761413899037 
109.27854318742959, 14.118558154180628, 22.509636835785738, 83.11006982660753, 55.54088837957511, 62.565617485797056 
108.39241278958558, 14.467080873844823, 22.50922329762881, 82.3567660671989, 55.7324216955024, 62.5636052948081 
107.50588169952172, 14.817991158403396, 22.50879768518877, 81.60130670706022, 55.92591606800235, 62.56157810985947 
106.61887770136659, 15.17120666637876, 22.508359979632502, 80.84361978919283, 56.121343680239185, 62.55953648311802 
105.73132688457427, 15.526644559464696, 22.507910174309337, 80.083631096028, 56.31867626245376, 62.55748097499701 
104.84315365993206, 15.88422149600584, 22.507448274923593, 79.32126407325954, 56.51788508321337, 62.55541215406454 
