# MEX_intpoint_lon [deg], MEX_intpoint_lat [deg], MEX_intpoint_angle [deg], TGO_intpoint_lon [deg], TGO_intpoint_lat [deg], TGO_intpoint_angle [deg] 
-104.65788175729325, 20.58555644338816, 22.730805519324207, -174.04342051932488, 58.965519967674794, 62.53288564198459 
-105.55374775375898, 20.196678920180744, 22.731441007205433, -174.83251061792305, 58.73984496545381, 62.53513423315323 
-106.44790503906388, 19.808918866984435, 22.732064752899667, -175.61811905249954, 58.515707014255355, 62.5373769243738 
-107.34045353844513, 19.422368102738435, 22.73267658046423, -176.4003594805255, 58.293141365205436, 62.53961303673411 
-108.23149159640272, 19.03711776478735, 22.733276328174295, -177.17934187910308, 58.07218265421799, 62.541841898102824 
-109.12111595535866, 18.653258330456826, 22.733863848542523, -177.95517267438132, 57.852864920245636, 62.544062843318486 
-110.00942173552508, 18.270879637684978, 22.73443900832127, -178.72795486604784, 57.63522162250026, 62.54627521437064 
-110.89650241583864, 17.890070904676396, 22.73500168848795, -179.49778814706775, 57.41928565669368, 62.548478360572794 
-111.78244981583212, 17.51092074854694, 22.73555178421311, 179.73523098115896, 57.205089370346016, 62.55067163872782 
-112.66735407832161, 17.133517202930612, 22.736089204811723, 178.9710090980539, 56.99266457720702, 62.55285441328503 
-113.5513036527999, 16.757947734520528, 22.736613873677538, 178.20945575736565, 56.7820425708332, 62.55502605648955 
-114.43438527943418, 16.38429925851887, 22.73712572820067, 177.45048338476218, 56.57325413736195, 62.557185948523696 
-115.31668397357707, 16.01265815297161, 22.737624719668688, 176.69400717935304, 56.36632956752127, 62.55933347764033 
-116.19828301070817, 15.643110271965714, 22.73811081315125, 175.93994501898663, 56.1612986679121, 62.561468040288545 
-117.07926391173193, 15.275740957668193, 22.738583987368486, 175.1882173691742, 55.95819077159843, 62.5635890412313 
-117.95970642856689, 14.910635051187354, 22.73904423454342, 174.4387471954931, 55.75703474803852, 62.56569589365544 
-118.83968852996811, 14.547876902238592, 22.739491560238516, 173.69145987933044, 55.55785901238906, 62.56778801927372 
-119.71928638753467, 14.187550377597786, 22.73992598317674, 172.9462831368288, 55.36069153421239, 62.569864848419485 
-120.59857436185898, 13.829738868327395, 22.74034753504732, 172.20314694090277, 55.16555984561567, 62.57192582013347 
-121.47762498878554, 13.474525295760959, 22.740756260296436, 171.46198344619793, 54.97249104884927, 62.57397038224321 
-122.35650896575045, 13.121992116233628, 22.741152215903295, 170.72272691686948, 54.78151182339061, 62.575997991434946 
-123.23529513818323, 12.772221324547127, 22.741535471141734, 169.98531365706077, 54.592648432538, 62.57800811331831 
-124.1140504859568, 12.425294456159476, 22.74190610732781, 169.2496819439678, 54.4059267295386, 62.580000222483555 
-124.99284010988019, 12.081292588090406, 22.742264217553675, 168.5157719633785, 54.22137216327263, 62.58197380255195 
-125.87172721823342, 11.7402963385355, 22.74260990640805, 167.78352574758077, 54.03900978351569, 62.58392834621891 
-126.75077311335093, 11.40238586518307, 22.742943289683875, 167.05288711553675, 53.85886424579961, 62.585863355290414 
-127.63003717826652, 11.067640862229238, 22.743264494073237, 166.32380161522494, 53.680959815891505, 62.58777834071261 
-128.50957686343733, 10.736140556088527, 22.743573656850298, 165.59621646805576, 53.505320373909704, 62.58967282259481 
-129.38944767357168, 10.407963699798378, 22.743870925542378, 164.870080515269, 53.33196941809462, 62.59154633022611 
-130.2697031545896, 10.083188566118093, 22.744156457589906, 164.14534416622692, 53.16093006825165, 62.59339840208555 
-131.15039488075158, 9.761892939323905, 22.744430419995428, 163.42195934851796, 52.99222506888245, 62.59522858584627 
-132.0315724419951, 9.444154105704254, 22.744692988962353, 162.6998794597917, 52.82587679202038, 62.597036438373635 
-132.91328343152426, 9.130048842760411, 22.744944349523788, 161.9790593212472, 52.661907239785165, 62.59882152571757 
-133.79557343370192, 8.819653407120349, 22.74518469516204, 161.25945513270102, 52.50033804667116, 62.60058342309912 
-134.67848601229878, 8.51304352117506, 22.745414227419257, 160.5410244291636, 52.341190481583105, 62.6023217148918 
-135.56206269915808, 8.21029435844897, 22.745633155499668, 159.82372603885653, 52.18448544963264, 62.60403599459759 
-136.44634298333816, 7.911480527718045, 22.745841695864105, 159.10752004260453, 52.03024349370826, 62.60572586481755 
-137.3313643007998, 7.616676055891794, 22.74604007181718, 158.39236773454056, 51.87848479583121, 62.60739093721808 
-138.21716202470773, 7.325954369677051, 22.746228513087708, 157.67823158406333, 51.72922917830881, 62.6090308324921 
-139.1037694564206, 7.039388276044393, 22.746407255403028, 156.96507519899026, 51.582496104696666, 62.61064518031589 
-139.99121781724457, 6.757049941520297, 22.746576540057664, 156.25286328985067, 51.43830468058083, 62.61223361930156 
-140.87953624103088, 6.479010870330463, 22.746736613476916, 155.5415616352663, 51.29667365419018, 62.61379579694566 
-141.76875176769755, 6.205341881422769, 22.746887726776027, 154.83113704836927, 51.15762141684929, 62.615331369573596 
-142.65888933776017, 5.936113084400533, 22.747030135315466, 154.12155734420813, 51.02116600328154, 62.61684000228081 
-143.54997178795566, 5.671393854399779, 22.74716409825281, 153.41279130809667, 50.887325091771864, 62.618321368870106 
-144.44201984804738, 5.411252805946719, 22.747289878092058, 152.70480866486065, 50.75611600419816, 62.61977515178619 
-145.33505213889742, 5.155757765834762, 22.747407740230724, 151.99758004893962, 50.62755570594032, 62.621201042046806 
-146.2290851718961, 4.904975745062772, 22.74751795250542, 151.29107697530435, 50.50166080567513, 62.62259873917142 
-147.12413334983611, 4.658972909879484, 22.747620784736533, 150.58527181114914, 50.37844755506541, 62.62396795110728 
-148.02020896932007, 4.417814551981712, 22.747716508272603, 149.8801377483237, 50.25793184835112, 62.62530839415303 
-148.91732222478933, 4.1815650579166554, 22.747805395534893, 149.17564877646714, 50.140129221850295, 62.626619792880376 
-149.8154812142603, 3.9502878777418213, 22.747887719562915, 148.47177965681138, 50.025054853376986, 62.62790188005378 
-150.71469194685363, 3.7240454929983517, 22.747963753561365, 147.76850589661998, 49.91272356158351, 62.62915439654861 
-151.61495835219947, 3.502899384056847, 22.74803377044918, 147.0658037242322, 49.803149805233865, 62.63037709126776 
-152.51628229179897, 3.2869099968969846, 22.74809804241124, 146.36365006468156, 49.69634768241489, 62.6315697210572 
-153.41866357242063, 3.076136709385167, 22.748156840453305, 145.66202251586054, 49.59233092969189, 62.632732050620206 
-154.32209996160427, 2.8706377971168306, 22.74821043396077, 144.96089932520366, 49.49111292121475, 62.6338638524314 
-155.2265872053451, 2.6704703988924465, 22.74825909026195, 144.26025936686355, 49.392706667780615, 62.63496490664974 
-156.13211904802213, 2.4756904818986296, 22.74830307419622, 143.56008211935313, 49.29712481585912, 62.636035001031345 
-157.0386872546328, 2.286352806667906, 22.748342647687824, 142.86034764363202, 49.204379646585664, 62.63707393084239 
-157.94628163539005, 2.102510891892664, 22.74837806932578, 142.16103656161195, 49.114483074728255, 62.63808149877177 
-158.8548900727315, 1.9242169791706851, 22.74840959395046, 141.46213003506068, 49.02744664763326, 62.63905751484438 
-159.7644985507852, 1.7515219977613794, 22.7484374722474, 140.76360974488261, 48.94328154415496, 62.640001796334715 
-160.67509118732858, 1.5844755294331323, 22.748461950348947, 140.06545787075564, 48.86199857357406, 62.640914167681245 
-161.58665026827222, 1.4231257734836604, 22.748483269444048, 139.36765707110544, 48.783608174509766, 62.64179446040178 
-162.49915628469006, 1.2675195120160885, 22.74850166539703, 138.67019046339817, 48.708120413829896, 62.64264251300977 
-163.4125879724125, 1.117702075554292, 22.748517368375534, 137.97304160473408, 48.63554498556362, 62.643458170932114 
-164.32692235418938, 0.9737173090816355, 22.74853060248839, 137.27619447272426, 48.56589120982088, 62.6442412864283 
-165.2421347844212, 0.835607538587393, 22.74854158543369, 136.57963344663543, 48.499168031722704, 62.64499171851131 
-166.15819899645035, 0.7034135382051646, 22.748550528157608, 135.8833432887858, 48.43538402034605, 62.64570933287021 
-167.07508715239254, 0.5771744980273043, 22.748557634524513, 135.18730912617767, 48.374547367687214, 62.646394001795066 
-167.99276989548255, 0.45692799267864137, 22.748563100998645, 134.49151643235214, 48.316665887647126, 62.64704560410362 
-168.9112164048973, 0.34270995073205773, 22.748567116337835, 133.79595100945178, 48.261747015042026, 62.64766402507078 
-169.83039445301102, 0.23455462504714636, 22.748569861299824, 133.1005989704786, 48.20979780464271, 62.648249156360066 
-170.7502704650286, 0.13249456411157937, 22.748571508361273, 132.40544672173337, 48.16082493024557, 62.64880089595822 
-171.67080958093285, 0.03656058446320615, 22.74857222145015, 131.71048094542508, 48.11483468377807, 62.64931914811223 
-172.59197571967397, -0.053218255731535914, 22.748572155691583, 131.01568858243792, 48.07183297444168, 62.64980382326939 
-173.5137316455193, -0.1368146818694968, 22.748571457167774, 130.3210568152443, 48.03182532789473, 62.650254838020494 
-174.4360390364736, -0.21420322680258602, 22.748570262692024, 129.6265730509531, 47.99481688547762, 62.65067211504605 
-175.35885855467157, -0.2853602533618851, 22.748568699597392, 128.93222490448244, 47.96081240348272, 62.65105558306578 
-176.2821499186356, -0.35026397545006693, 22.74856688554017, 128.23800018184585, 47.929816252471, 62.6514051767917 
-177.2058719772851, -0.4088944776416062, 22.74856492831839, 127.54388686354287, 47.90183241663744, 62.65172083688428 
-178.1299827855749, -0.46123373323418515, 22.748562925705762, 126.84987308804328, 47.87686449322695, 62.6520025099127 
-179.05443968163465, -0.5072656206988716, 22.748560965301024, 126.1559471353561, 47.85491569200242, 62.65225014831831 
-179.97919936527404, -0.5469759384809728, 22.74855912439321, 125.46209741067348, 47.835988834766574, 62.652463710382065 
179.09578202228758, -0.5803524181081414, 22.748557469842687, 124.76831242808095, 47.820086354938546, 62.6526431601957 
178.17054881761322, -0.6073847355669498, 22.74855605797842, 124.07458079432456, 47.8072102971868, 62.65278846763672 
177.24514575331293, -0.628064520914409, 22.748554934511336, 123.38089119262665, 47.797362317119095, 62.6528996083474 
176.3196178755368, -0.6423853660956715, 22.74855413446415, 122.6872323665414, 47.79054368103044, 62.65297656371768 
175.39401046085447, -0.6503428309447845, 22.748553682117553, 121.99359310384142, 47.786755265709665, 62.65301932087191 
174.4683689326826, -0.6519344473504376, 22.748553590972893, 121.29996222042759, 47.78599755830528, 62.65302787266001 
173.54273877742403, -0.6471597215743631, 22.748553863731484, 120.60632854425302, 47.78827065625071, 62.65300221765216 
172.61716546048274, -0.6360201347153482, 22.74855449229043, 119.9126808992536, 47.793574267249376, 62.65294236013795 
171.69169434232035, -0.6185191413175061, 22.748555457755092, 119.2190080892763, 47.80190770931954, 62.65284831012936 
170.76637059471878, -0.5946621661270061, 22.748556730468078, 118.52529888199703, 47.8132699108988, 62.652720083367846 
169.8412391174136, -0.5644565990069028, 22.748558270054797, 117.83154199281992, 47.82765941100791, 62.65255770133545 
168.91634445526023, -0.5279117880253374, 22.748560025485528, 117.13772606874956, 47.84507435947359, 62.65236119126985 
167.99173071609297, -0.4850390307376772, 22.748561935153734, 116.44383967222758, 47.86551251720971, 62.652130586183574 
167.0674414894344, -0.43585156368860256, 22.74856392697088, 115.74987126492529, 47.88897125655589, 62.65186592488692 
166.14351976620793, -0.38036455016518217, 22.748565918477208, 115.05580919148339, 47.91544756167296, 62.651567252014885 
165.22000785960233, -0.3185950662373107, 22.748567816968652, 114.3616416631903, 47.944938028993825, 62.65123461805787 
164.29694732723215, -0.25056208512643313, 22.74856951963955, 113.6673567415896, 47.977438867728786, 62.65086807939632 
163.3743788947325, -0.17628645994849104, 22.748570913741005, 112.97294232200797, 48.01294590042359, 62.65046769833873 
162.4523423809192, -0.09579090488126182, 22.74857187675472, 112.27838611699367, 48.0514545635692, 62.650033543163524 
161.53087662464083, -0.009099974810750101, 22.748572276581992, 111.58367563965622, 48.092959908260816, 62.64956568816455 
160.61001941343946, 0.08375995648489512, 22.748571971747758, 110.88879818689728, 48.13745660090496, 62.64906421369963 
159.68980741413174, 0.18276071955152798, 22.74857081161921, 110.19374082252227, 48.18493892397218, 62.64852920624282 
158.77027610541185, 0.287872373809486, 22.748568636638897, 109.49849036022252, 48.235400776793306, 62.64796075843966 
157.85145971257126, 0.399063233369273, 22.748565278571885, 108.80303334641661, 48.28883567639685, 62.6473589691656 
156.93339114442082, 0.5162998940406949, 22.748560560766684, 108.10735604294008, 48.34523675838521, 62.64672394358744 
156.01610193249184, 0.63954726146065, 22.748554298429585, 107.41144440957135, 48.40459677784665, 62.64605579322766 
155.09962217258453, 0.7687685802630413, 22.748546298912025, 106.71528408638189, 48.46690811030064, 62.645354636031215 
154.18398046872272, 0.9039254642116891, 22.74853636201068, 106.01886037589824, 48.53216275267326, 62.64462059643519 
153.2692038795641, 1.0449779272159334, 22.74852428027974, 105.3221582250624, 48.60035232429954, 62.643853805440784 
152.35531786730795, 1.1918844151469168, 22.748509839355112, 104.62516220697712, 48.6714680679497, 62.64305440068741 
151.4423462491308, 1.3446018383716585, 22.748492818290018, 103.92785650242226, 48.745500850875345, 62.642222526529 
150.5303111511736, 1.5030856049211274, 22.74847298990158, 103.2302248811267, 48.82244116587242, 62.64135833411246 
149.61923296509383, 1.6672896542082356, 22.748450121127917, 102.53225068278132, 48.902279132356846, 62.64046198145734 
148.7091303071879, 1.8371664912112988, 22.748423973395294, 101.83391679777627, 48.98500449744892, 62.639533633537674 
147.800019980081, 2.0126672210388574, 22.748394302994836, 101.1352056476462, 49.0706066370625, 62.63857346236477 
146.89191693697242, 2.193741583791798, 22.74836086146832, 100.43609916520613, 49.15907455699436, 62.63758164707151 
145.9848342484176, 2.3803379896398633, 22.748323396002494, 99.73657877435929, 49.25039689400956, 62.63655837399751 
145.07878307161994, 2.572403554029942, 22.7482816498314, 99.03662536955845, 49.344561916918, 62.63550383677493 
144.17377262219853, 2.7698841329452297, 22.74823536264633, 98.33621929490062, 49.4415575276374, 62.63441823641542 
143.26981014839092, 2.9727243581351974, 22.748184271012537, 97.63534032283458, 49.541371262237604, 62.633301781396966 
142.36690090764387, 3.18086767223837, 22.748128108792564, 96.93396763245951, 49.64399029196125, 62.632154687751026 
141.46504814553907, 3.394256363721159, 22.748066607575243, 96.23207978739227, 49.74940142421517, 62.63097717914999 
140.564253076995, 3.6128316015584083, 22.747999497110104, 95.52965471317955, 49.8575911035272, 62.6297694869941 
139.66451486968143, 3.836533469582963, 22.74792650574643, 94.82666967423071, 49.968545412462426, 62.62853185049794 
138.76583062957832, 4.065301000434241, 22.74784736087647, 94.123101250245, 50.08225007249324, 62.62726451677648 
137.8681953886063, 4.2990722090377425, 22.747761789382174, 93.41892531210672, 50.19869044481661, 62.6259677409301 
136.9716020942533, 4.537784125550166, 22.747669518084923, 92.71411699722023, 50.31785153111266, 62.62464178612857 
136.07604160111762, 4.781372827707403, 22.74757027419761, 92.00865068425513, 50.43971797423768, 62.62328692369358 
135.18150266428557, 5.029773472515046, 22.747463785778443, 91.30249996727144, 50.56427405884493, 62.6219034331801 
134.28797193445968, 5.282920327224151, 22.747349782186, 90.59563762919248, 50.69150371192611, 62.62049160245546 
133.39543395475152, 5.540746799537406, 22.747227994534835, 89.88803561459217, 50.821390503266194, 62.61905172777701 
132.50387115905178, 5.80318546699404, 22.74709815615102, 89.17966500176159, 50.95391764580447, 62.617584113866926 
131.61326387188956, 6.070168105484157, 22.746960003027077, 88.47049597401885, 51.08906799589328, 62.6160890739853 
130.7235903096924, 6.341625716846606, 22.746813274275713, 87.76049779022333, 51.22682405344731, 62.614566929999974 
129.83482658335888, 6.617488555506744, 22.746657712581726, 87.04963875445557, 51.36716796197432, 62.61301801245379 
128.94694670205482, 6.897686154113826, 22.746493064651446, 86.33788618482008, 51.51008150847921, 62.611442660628725 
128.05992257814682, 7.182147348140065, 22.746319081659237, 85.62520638132864, 51.655546123232305, 62.60984122260665 
127.17372403318684, 7.470800299406566, 22.74613551969035, 84.91156459281825, 51.80354287939245, 62.60821405532656 
126.28831880486241, 7.763572518503909, 22.7459421401796, 84.19692498285643, 51.95405249247574, 62.60656152463805 
125.40367255483159, 8.060390886077695, 22.745738710345343, 83.4812505945846, 52.10705531965946, 62.60488400535081 
124.51974887736047, 8.361181672952418, 22.745525003618013, 82.76450331444781, 52.26253135891132, 62.60318188128016 
123.63650930868721, 8.66587055906896, 22.745300800062864, 82.04664383475715, 52.42046024793298, 62.60145554528774 
122.75391333703625, 8.974382651214256, 22.745065886796194, 81.3276316150282, 52.58082126290694, 62.5997053993181 
121.8719184132121, 9.286642499523268, 22.744820058394602, 80.60742484203742, 52.74359331703513, 62.5979318544302 
120.99047996170357, 9.60257411273666, 22.744563117296664, 79.8859803885346, 52.908754958857195, 62.596135330824005 
120.10955139223479, 9.922100972198928, 22.744294874196537, 79.16325377054815, 53.07628437033605, 62.59431625786209 
119.22908411170134, 10.24514604458467, 22.744015148428964, 78.43919910321587, 53.24615936469746, 62.59247507408545 
118.34902753643595, 10.571631793342426, 22.74372376834518, 77.71376905507228, 53.41835738401048, 62.59061222722425 
117.46932910475151, 10.901480188847426, 22.743420571679195, 76.98691480071972, 53.59285549649412, 62.5887281742025 
116.58993428971347, 11.23461271725714, 22.743105405903925, 76.25858597180739, 53.769630393536005, 62.586823381137094 
115.7107866121002, 11.570950388064496, 22.742778128576795, 75.52873060624032, 53.94865838640718, 62.584898323330464 
114.83182765351252, 11.910413740346408, 22.742438607674302, 74.79729509553492, 54.129915402657474, 62.58295348525731 
113.95299706960144, 12.25292284770604, 22.74208672191504, 74.06422413023705, 54.31337698217414, 62.58098936054491 
113.07423260338606, 12.598397321909802, 22.741722361070828, 73.32946064331215, 54.49901827288677, 62.57900645194668 
112.19547009864164, 12.946756315220819, 22.74134542626547, 72.59294575141558, 54.686814026099654, 62.57700527130924 
111.31664351334126, 13.297918521432859, 22.74095583026077, 71.85461869394639, 54.87673859143279, 62.57498633953266 
110.43768493314269, 13.651802175609685, 22.74055349772935, 71.11441676978394, 55.06876591135115, 62.57295018652372 
109.55852458491664, 14.008325052536486, 22.74013836551401, 70.37227527160343, 55.26286951526145, 62.57089735114213 
108.67909085031948, 14.367404463891399, 22.739710382873145, 69.62812741766135, 55.459022513154075, 62.568828381139475 
107.79931027942074, 14.72895725414638, 22.739269511711978, 68.88190428093887, 55.65719758876729, 62.56674383309118 
106.91910760440085, 15.092899795208245, 22.738815726799167, 68.13353471552556, 55.85736699224931, 62.56464427232051 
106.03840575334345, 15.45914797981165, 22.738349015968698, 67.3829452801231, 56.05950253229287, 62.56253027281577 
105.15712586415215, 15.827617213677595, 22.737869380306385, 66.63006015854245, 56.26357556771549, 62.56040241713946 
